Time [s],Longitude [rad],Latitude [rad],Altitude [m],V North [m/s],V East [m/s],V Down [m/s],Roll [rad],Pitch [rad],Yaw [rad]
1.0025062656641603,0.609673659680711,0.5734647794170904,-10.738838,0.007842999999999822,0.003833000000000003,0.005795999999999996,-0.0041538836197465,0.0104370689269261,3.119845816203359
2.0050125313283207,0.6096736935400984,0.5734644601963702,-10.715885,0.002263000000000126,-0.01679900000000001,0.016749,0.0008552113334772,0.0084823001646925,3.1344716229751937
3.007518796992481,0.6096737211163006,0.573464141150183,-10.706233,-0.009015999999999913,-0.05248599999999999,0.0041010000000000005,0.0046425758103049,0.0073303828583761,-3.130754124028324
4.010025062656641,0.6096737385695931,0.5734638194860018,-10.678985,-0.004995000000000083,-0.050967000000000005,-0.032038,0.0130201562198776,0.0070860367630969,-3.1138244128306862
5.012531328320802,0.6096737472962394,0.5734634962510243,-10.623218,0.0009540000000001214,-0.012946,-0.017769,0.0068242373752978,0.0035779249665883,-3.101083579104297
6.015037593984962,0.6096737544520894,0.5734631730160469,-10.570864,0.01113799999999987,0.008962999999999999,0.025408,-0.0027227136331111,0.0002268928027593,-3.0900706038840906
7.017543859649122,0.6096737607352747,0.5734628532717279,-10.565763,0.012699000000000016,-0.023971,0.060883999999999994,0.0122173047639603,-0.00609119908946,-3.0787782712638103
8.020050125313283,0.6096737628296697,0.5734625354472711,-10.608986,-0.002647000000000066,-0.067826,0.022579,0.0144687794990329,-0.0103847090493662,-3.067067286515853
9.022556390977442,0.6096737516595625,0.5734622165756168,-10.643324,-0.007913999999999977,-0.04623100000000001,-0.033091999999999996,0.0059341194567807,-0.0105941485596054,-3.061621649810121
10.025062656641603,0.6096737322864078,0.5734618961331661,-10.632156,0.0002309999999998702,0.011753,-0.040912000000000004,0.0022689280275926,-0.0089535390627308,-3.0640999998946605
11.027568922305765,0.6096737179747079,0.5734615760397812,-10.603238,0.00043600000000010297,0.03781500000000001,0.006350999999999999,0.0053930673886624,-0.0095469510084089,-3.06886492328553
12.030075187969924,0.6096737116915226,0.573461254899199,-10.596615,4.999999999810711e-06,0.015832,0.029373000000000003,0.0028274333882308,-0.010419615634406,-3.0709765447876403
13.032581453634084,0.6096737087244629,0.5734609323623532,-10.620914,-0.0017329999999997625,-0.007725000000000003,0.025712,0.0073478361508961,-0.0107861347773248,-3.07108147398227
14.035087719298245,0.6096737029648763,0.5734606110472378,-10.661548,-0.0047120000000000495,-0.017522999999999997,0.003927,0.0053407075111026,-0.0089884456477706,-3.071412772380884
15.037593984962406,0.6096736916202363,0.5734602895575897,-10.691954,0.0020929999999999005,-0.009621999999999999,-0.019935,0.0038222710618675,-0.0052185344634629,-3.075304978785879
16.040100250626566,0.6096736790538656,0.5734599671952768,-10.695365,0.006673000000000151,0.0069159999999999985,-0.031703999999999996,0.0051312680008633,-0.0012391837689158,-3.0821817854782467
17.042606516290725,0.6096736691054889,0.5734596479745566,-10.670823,0.005727999999999955,0.033394,-0.016919,0.0060213859193804,0.0008726646259973,-3.0904543668800195
18.045112781954884,0.6096736666620279,0.5734593282302376,-10.64589,-0.010098000000000162,0.028458,0.014292,0.0014835298641951,0.000628318530718,-3.095795336190509
19.047619047619047,0.6096736671856267,0.573459007787787,-10.641478,-0.013723999999999847,-0.0037550000000000014,0.021026,0.0010646508437165,-8.726646259971105e-05,-3.0972265236304377
20.050125313283207,0.6096736684073571,0.5734586849018753,-10.643428,-0.0026090000000000835,-0.013087999999999999,-0.013352,0.0059515727493006,0.0017453292519944,-3.0989019175393047
21.052631578947366,0.6096736677092255,0.5734583607942332,-10.627099,0.014406000000000141,0.013234,-0.015286000000000001,0.0005235987755982,0.0021991148575128,-3.103335018932785
22.05513784461153,0.6096736694545547,0.5734580389555192,-10.607635,0.014079000000000175,0.024768000000000005,0.010662000000000001,0.0002268928027592,-0.0002443460952792,-3.106825625076896
23.05764411027569,0.6096736764358718,0.5734577207819965,-10.605637,-0.0016640000000003319,0.0025599999999999998,0.017523,0.0094945911308491,-0.0037000980142278,-3.1049233209119778
24.06015037593985,0.6096736834171887,0.5734574022594081,-10.61278,-0.011823999999999835,-0.017167,-0.0001730000000000004,0.0077143552938149,-0.0052534410485027,-3.100420179455615
25.062656641604008,0.6096736865587814,0.5734570805952269,-10.616152,-0.008249000000000173,-0.015462,-0.004745,0.0028972465583105,-0.0056374134839416,-3.097470730099377
26.065162907268167,0.6096736858606496,0.5734567557894531,-10.613294,0.0007760000000001099,-0.007363,-0.005822,0.0039269908169872,-0.0050090949532237,-3.09638869577631
27.06766917293233,0.6096736844643862,0.5734564334271403,-10.604094,0.012413000000000007,0.008991,-0.004301,0.0005585053606381,-0.0051312680008632,-3.097941846824368
28.07017543859649,0.6096736856861168,0.5734561140318871,-10.601252,0.009202000000000155,0.016884999999999997,0.01759,0.0049916416607037,-0.0077318085863347,-3.0994779634589253
29.07268170426065,0.6096736890022423,0.5734557956838316,-10.623626,-0.005389000000000088,-0.004622999999999999,0.027268999999999998,0.0007853981633974,-0.0105068820970057,-3.097610286626366
30.07518796992481,0.6096736921438349,0.5734554766376444,-10.660575,-0.014235999999999915,-0.026312000000000002,-0.006199999999999997,0.0064053583548191,-0.0106465084371654,-3.0947130226147634
31.07769423558897,0.609673691969302,0.5734551541007986,-10.670613,-0.002120000000000122,-0.0028859999999999997,-0.038814,0.0053930673886624,-0.0087266462599715,-3.094835265475573
32.08020050125313,0.609673689700374,0.5734548306912882,-10.644892,0.006010999999999989,0.030393999999999997,-0.021095,-0.0035604716740684,-0.0071558499331767,-3.096528234850008
33.08270676691729,0.6096736954599605,0.5734545100743046,-10.625714,0.0067070000000000185,0.022393999999999997,0.0306,0.0003141592653589,-0.0077841684638946,-3.095707982461448
34.08521303258145,0.6096737040120739,0.5734541913771831,-10.650726,-0.001104000000000216,-0.028183999999999997,0.043173,0.0051661745859032,-0.0089186324776908,-3.0911702311260174
35.08771929824561,0.6096737048847386,0.5734538716328642,-10.696466,-0.00017999999999984695,-0.048177,-0.004402000000000003,0.0072082098107365,-0.008569566627292,-3.0868069079960314
36.09022556390977,0.609673694761829,0.5734535520630781,-10.715149,0.00883300000000009,-0.012598999999999999,-0.040163,0.0049392817831439,-0.0071034900556168,-3.0876620495163385
37.092731829573935,0.6096736830681229,0.5734532337150225,-10.699828,0.0031010000000000204,0.024329,-0.018399000000000002,0.004293509959906,-0.0081332343142934,-3.091780886924705
38.095238095238095,0.6096736773085364,0.5734529143197694,-10.684242,-0.016515000000000057,0.027544,0.012659,-0.0013264502315156,-0.0098960168588078,-3.095306382200564
39.097744360902254,0.6096736802755961,0.5734525926555883,-10.686674,-0.012976000000000099,0.014711,0.017405,0.0047996554429844,-0.0095644043009288,-3.0975929729601868
40.100250626566414,0.6096736846389191,0.5734522680243475,-10.702311,0.006622000000000128,-0.005263,0.007994999999999999,-0.0038222710618675,-0.0075921822461753,-3.0983956498831784
41.10275689223057,0.609673687605979,0.5734519461856333,-10.722018,0.014600999999999864,-0.013792,0.0015400000000000032,0.0063355451847394,-0.0076445421237349,-3.0986225426859377
42.10526315789473,0.6096736855115839,0.5734516269649131,-10.743366,0.004002999999999979,-0.009969,0.00281,0.0085695666272921,-0.0100880030765271,-3.0990414566130013
43.10776942355889,0.6096736801010632,0.5734513082677918,-10.76382,-0.013171999999999962,-0.010897,-0.006948000000000001,0.0002443460952792,-0.0106814150222052,-3.0997048562616847
44.11027568922306,0.609673673643345,0.5734509866036106,-10.765826,-0.009869000000000128,0.010854,-0.02749,0.0023387411976724,-0.0071907565182165,-3.1029685696030365
45.11278195488722,0.6096736729452132,0.5734506631941002,-10.743466,0.005707000000000129,0.043601,-0.013463999999999999,-0.000296705972839,-0.0034033920413889,-3.1071571852748976
46.11528822055138,0.6096736813227935,0.5734503417044521,-10.728624,0.010979000000000294,0.036035,0.028193,-0.0027052603405912,-0.0028099800957108,-3.108065053191908
47.11779448621554,0.6096736935400984,0.5734500230073306,-10.755054,0.0021499999999998742,-0.024030000000000003,0.040637,0.0035604716740684,-0.0031241393610697,-3.102619416486175
48.1203007518797,0.6096737008704812,0.5734497039611434,-10.80161,-0.0035570000000002544,-0.060797,-0.005095000000000002,0.0111352006277238,-0.0025132741228717,-3.097522932897304
49.122807017543856,0.6096736949363617,0.5734493836932256,-10.812875,0.0020450000000002966,-0.027628,-0.05777,0.0054454272662223,-0.000558505360638,-3.097540508362872
50.125313283208015,0.6096736837662546,0.5734490623781103,-10.766129,0.0025849999999998374,0.04073,-0.041981000000000004,-0.0028797932657906,3.4906585040017646e-05,-3.101380250170552
51.127819548872175,0.6096736807991949,0.5734487417611267,-10.708363,-0.008395000000000152,0.055989,0.021759,-0.0014835298641951,-0.0016406094968746,-3.1020958526171616
52.130325814536334,0.6096736910966375,0.5734484211441432,-10.698591,-0.010211999999999666,0.0011800000000000005,0.060561000000000004,-0.0002268928027592,-0.0034732052114687,-3.097453154633809
53.1328320802005,0.6096737005214155,0.5734480977346328,-10.739743,-0.00021700000000013375,-0.054016,0.027302000000000003,0.0032637657012293,-0.0042236967898261,-3.0918855543199477
54.13533834586466,0.6096736984270203,0.5734477741505895,-10.775792,0.013365999999999989,-0.042383,-0.033242,0.0076096355386952,-0.0024783675378319,-3.090943059070578
55.13784461152882,0.6096736886531765,0.5734474535336058,-10.765201,0.014791999999999916,0.010980999999999998,-0.044249000000000004,0.0004363323129985,-0.0009948376736366,-3.0946608372701285
56.14035087719298,0.6096736794029315,0.5734471364072807,-10.729123,-0.004445999999999728,0.036019,-0.004719999999999995,-0.0024085543677521,-0.0010995574287564,-3.098256093356189
57.14285714285714,0.609673680624662,0.5734468170120276,-10.704268,-0.01687700000000003,0.02325,0.019593999999999997,0.0044680428851054,-0.0006632251157578,-3.0984654281466733
58.1453634085213,0.6096736879550448,0.5734464937770501,-10.700676,-0.007557000000000258,-0.002028000000000002,0.018815,-0.0029496064358704,0.0008901179185172,-3.097174059033123
59.14786967418546,0.6096736916202363,0.5734461689712764,-10.708206,0.00472600000000023,-0.024181,0.0001299999999999999,-0.0006806784082777,0.0029146998508304,-3.096004653527701
60.15037593984962,0.6096736895258411,0.5734458464344306,-10.703848,0.00998399999999977,-0.01599,-0.020311,0.0054977871437821,0.0054628805587422,-3.095515978790436
61.15288220551378,0.6096736841153205,0.5734455277373093,-10.679586,0.009028999999999954,0.008716,-0.012871,0.006457718232379,0.0065100781099389,-3.0964059919891977
62.15538847117794,0.6096736788793327,0.5734452092147206,-10.653621,0.000456000000000234,0.01378,0.006769000000000001,0.0061959188445798,0.0057246799465413,-3.0972787264283648
63.1578947368421,0.6096736797519974,0.5734448899940005,-10.636463,-0.0070190000000001085,0.0008029999999999999,0.008726999999999999,-0.0003141592653589,0.004921828490624,-3.097418265502062
64.16040100250626,0.609673680450129,0.5734445683298194,-10.620701,-0.010445999999999955,-0.014682,-0.006644999999999998,0.0032288591161895,0.0048869219055842,-3.096092007256764
65.16290726817043,0.6096736774830693,0.5734442450948418,-10.588116,-0.006473999999999869,-0.0032430000000000002,-0.027035000000000003,0.002460914245312,0.0065100781099389,-3.0972265236304377
66.16541353383458,0.6096736778321351,0.5734439223834632,-10.53782,0.012939999999999952,0.028268,0.002926000000000005,-0.0100705497840072,0.0054628805587422,-3.1007344434407287
67.16791979949875,0.609673680450129,0.573443600719282,-10.51357,0.010749999999999815,0.008758000000000002,0.041024,0.0076619954162551,0.0013962634015955,-3.1008742443138138
68.1704260651629,0.6096736820209253,0.5734432813240289,-10.525149,-0.006069000000000102,-0.028291,0.018709,0.0075572756611354,-0.0017104226669544,-3.0975753974946185
69.17293233082707,0.6096736807991949,0.5734429600089137,-10.528322,-0.009668999999999706,-0.014164,-0.031096,-0.0001396263401595,-0.0023038346126325,-3.0964235849080577
70.17543859649122,0.6096736788793327,0.5734426367739361,-10.497598,0.0013319999999996668,0.028647,-0.020684,-0.0044680428851054,-0.0027227136331111,-3.099338406931936
71.17794486215539,0.6096736801010632,0.5734423156333539,-10.467077,0.00658000000000003,0.015053999999999998,0.018430000000000002,0.0005585053606381,-0.0045029494701454,-3.100856668848246
72.18045112781954,0.6096736835917217,0.5734419976343641,-10.464487,0.005579000000000001,-0.018177,0.029672999999999998,0.0063180918922194,-0.0076619954162551,-3.100036416459686
73.1829573934837,0.6096736828935899,0.5734416785881769,-10.482234,-0.006539999999999768,-0.020659999999999998,0.003944000000000001,0.0037699111843077,-0.009494591130849,-3.098064351484565
74.18546365914787,0.609673680624662,0.5734413584947919,-10.487952,-0.007842999999999822,0.012452,-0.021402,-0.0019896753472735,-0.0099832833214075,-3.0990590495318617
75.18796992481202,0.6096736816718594,0.5734410349107487,-10.4779,0.00540699999999994,0.037907,-0.0009100000000000002,-0.0051312680008633,-0.0105592419745657,-3.101205542712427
76.19047619047619,0.609673687431446,0.5734407132465676,-10.487479,0.011644999999999683,-0.003357000000000006,0.033461,0.0048694686130641,-0.0130725160974374,-3.0988843420737373
77.19298245614034,0.6096736910966375,0.5734403952475778,-10.524179,-0.0015540000000000553,-0.047306,0.010789,0.0082205007768932,-0.0156206968053491,-3.0949226192046355
78.19548872180451,0.6096736869078473,0.5734400765504565,-10.547212,-0.008866999999999958,-0.018004,-0.029309,0.0020071286397934,-0.0157428698529886,-3.094608372672813
79.19799498746866,0.6096736792283985,0.57343975575894,-10.542977,-0.008766000000000052,0.033053,-0.01752,-0.0008377580409572,-0.0135612082879958,-3.09731359810682
80.20050125313283,0.6096736795774644,0.5734394333966271,-10.539304,0.0039010000000003764,0.036936,0.017192,-0.003385938748869,-0.011990411961201,-3.0981338679486723
81.203007518797,0.6096736888277093,0.5734391110343142,-10.564449,0.014125999999999639,-0.002715000000000002,0.030445000000000003,0.0023212879051524,-0.012932889757278,-3.0963711203107427
82.20551378446115,0.6096736958090264,0.5734387930353245,-10.609174,0.007894999999999985,-0.032833,0.005041999999999998,0.0058643062867009,-0.0149051118120315,-3.092199800851769
83.20802005012531,0.6096736952854276,0.5734384759089993,-10.643511,-0.0064229999999998455,-0.024753,-0.019868,0.0066322511575784,-0.0157254165604687,-3.08963411449146
84.21052631578947,0.609673687605979,0.5734381565137464,-10.651873,-0.012048000000000059,-0.0035689999999999993,-0.026285000000000003,0.0052359877559829,-0.0148527519344716,-3.089442372619836
85.21303258145363,0.6096736811482608,0.5734378325806372,-10.643209,-0.005096999999999685,0.015679,-0.005096,-0.0034906585039886,-0.0144513262065129,-3.091623754932148
86.21553884711778,0.609673680624662,0.5734375103928573,-10.643624,0.004916999999999838,0.017827,0.020923,-0.0012740903539558,-0.0153414441250301,-3.0943638869511942
87.21804511278195,0.6096736834171887,0.5734371885541432,-10.672853,0.006867999999999874,-0.003665999999999999,0.028323,0.006754424205218,-0.0169995069144246,-3.093962810289086
88.22055137844612,0.6096736830681229,0.5734368689843572,-10.717286,0.0013399999999998968,-0.019941,-0.0009989999999999999,0.0024085543677521,-0.0182212373908208,-3.0924616002395684
89.22305764411027,0.6096736795774644,0.5734365499381698,-10.748582,-0.0023799999999996047,0.0013350000000000002,-0.016991000000000003,0.0008377580409572,-0.0192509816494974,-3.093316741759875
90.22556390977444,0.6096736774830693,0.573436229844785,-10.766677,-0.0014280000000002069,0.019271,-0.0050019999999999995,0.0006806784082777,-0.0189891822616983,-3.0958478007878245
91.2280701754386,0.609673678181201,0.5734359090532685,-10.789086,0.002813999999999872,0.007776,0.010084,0.0007679448708775,-0.0176801853227024,-3.0964235849080577
92.23057644110276,0.6096736794029315,0.5734355887853508,-10.823308,0.0011689999999999756,-0.012613,0.012615000000000001,0.0031590459461097,-0.0170344134994646,-3.095550867922183
93.23308270676692,0.6096736802755961,0.573435268517433,-10.86343,-0.0035759999999998016,-0.013205,-0.004461,0.003996803987067,-0.0149749249821113,-3.0954462005269407
94.23558897243107,0.609673678006668,0.573434946678719,-10.891603,-0.0028440000000000687,0.003084,-0.015394000000000001,-0.0033510321638291,-0.0128805298797181,-3.097941846824368
95.23809523809524,0.60967367573774,0.5734346239673402,-10.901956,0.0015420000000001544,0.017838,-0.018339,0.002443460952792,-0.0106639617296853,-3.1007344434407287
96.2406015037594,0.6096736774830693,0.5734343036994225,-10.904165,0.007169999999999899,0.015857000000000003,0.004378,0.0015533430342749,-0.0100356431989674,-3.1023403208854883
97.24310776942356,0.6096736821954583,0.5734339843041694,-10.920262,-0.0015070000000001471,-0.011647000000000001,0.016008,0.0043633231299858,-0.0098436569812478,-3.101572271294856
98.24561403508773,0.6096736827190571,0.5734336645598506,-10.9429,-0.007966999999999835,-0.022375,-0.006293,0.0018151424220741,-0.0082205007768931,-3.0997048562616847
99.24812030075188,0.6096736814973265,0.5734333432447352,-10.947041,-0.004764999999999908,0.008871,-0.024557000000000002,-0.0009773843811168,-0.0054628805587422,-3.100088619257613
100.25062656641605,0.6096736814973265,0.5734330205333564,-10.936004,0.006097000000000019,0.029647,-2.599999999999998e-05,-0.0031590459461097,-0.0031939525311495,-3.101607160426604
101.2531328320802,0.6096736877805119,0.5734327006145046,-10.941515,0.009170999999999818,-1.5000000000001124e-05,0.027602,-0.0002094395102393,-0.0028972465583105,-3.100420179455615
102.25563909774436,0.6096736917947692,0.5734323815683173,-10.967982,-0.0004729999999999457,-0.034342,0.004132999999999998,0.0114319066005628,-0.0025481807079117,-3.097156483567555
103.25814536340852,0.6096736900494399,0.5734320607768009,-10.976338,-0.004633999999999805,-0.014839000000000001,-0.036367,5.235987755982988e-05,5.2359877559915446e-05,-3.0959870780621337
104.26065162907268,0.6096736863842485,0.5734317403343501,-10.952227,-0.0023810000000001885,0.020228,-0.016247,-0.0028972465583105,0.0019722220547535,-3.0980465142196096
105.26315789473684,0.6096736860351826,0.5734314195428336,-10.928663,-0.006441999999999837,0.009138,0.009814000000000003,-0.0016755160819145,0.0044854961776255,-3.0983261334190715
106.265664160401,0.609673687431446,0.5734310970059879,-10.914661,0.0032249999999995893,-0.007429000000000002,0.007125999999999999,-0.0017278759594743,0.0071383966406568,-3.097767401165631
107.26817042606515,0.6096736891767752,0.5734307751672737,-10.900239,0.0035560000000001146,-0.008927,-0.009503,0.0059166661642607,0.008325220532013,-3.096894684179756
108.27067669172932,0.6096736881295777,0.5734304545502902,-10.871544,0.0035840000000000316,0.005901,-0.013149000000000001,0.0053232542185827,0.0093724180832095,-3.097261133509505
109.27318295739347,0.6096736870823802,0.5734301339333066,-10.840826,-0.0005310000000000592,0.0012240000000000003,0.009652,-0.003385938748869,0.0092327917430501,-3.0975929729601868
110.27568922305764,0.6096736860351826,0.5734298126181914,-10.823477,-0.00710199999999972,-0.015255000000000001,0.010863999999999999,0.0009773843811168,0.0093724180832095,-3.096632902245249
111.2781954887218,0.6096736820209253,0.5734294918266748,-10.805824,-0.0005429999999999602,-0.004421,-0.010821999999999998,0.0028274333882308,0.0109955742875642,-3.0976454375575013
112.28070175438596,0.6096736790538656,0.5734291705115595,-10.775275,0.009157999999999777,0.014227,-0.009780999999999998,-0.0023387411976724,0.0111701072127636,-3.100577311448172
