Time [s],V North [m/s],V East [m/s],V Down [m/s]
0.0,-1.754538941498513,-0.20886636199647476,-0.6915575737172098
1.0025062656641603,-1.7379919237240913,-0.027677476217119964,-0.549018438898077
2.0050125313283207,-1.5444439473118072,0.44209088749342385,-0.5142651122137298
3.007518796992481,-1.3497762299849352,0.8038823807728969,-0.49306149779165903
4.010025062656641,-1.0467931443602698,1.1225467832742817,-0.47035917235969826
5.012531328320802,-0.7366687275246235,1.3627777237009469,-0.46473998508060066
6.015037593984962,-0.4207310115056406,1.511207929375984,-0.42875738682685194
7.017543859649122,-0.08105379783680125,1.6036266827083527,-0.4297658776671713
8.020050125313283,0.2408055439089896,1.6374702056135353,-0.42141695873880286
9.022556390977442,0.5530934538212542,1.584018809418892,-0.4474083319007741
10.025062656641603,0.8560027597522336,1.5000434175753363,-0.4342840310884847
11.027568922305765,1.112396535289942,1.346231754738874,-0.44770237565890353
12.030075187969924,1.3680901278602888,1.0983478435829657,-0.4721866809820734
13.032581453634084,1.7085858721583635,0.5781732086497904,-0.458064681692935
14.035087719298245,1.8793567248116714,0.08958316416741002,-0.5403913516673814
15.037593984962406,1.988247087269205,-0.1829920401726505,-0.5778355368623264
16.040100250626566,2.0917698792310393,-0.3023310472919369,-0.6056316694354065
17.042606516290725,2.1909237134953266,-0.27694943122146654,-0.6297007576396544
18.045112781954884,2.2792114792990437,-0.22179885777617286,-0.6369505435358761
19.047619047619047,2.368891597095573,-0.1897139613237621,-0.6472314040085136
20.050125313283207,2.453093788959706,-0.1908888142297508,-0.6541710858233297
21.052631578947366,2.506864178614286,-0.21280303997626057,-0.6781035364591319
22.05513784461153,2.5586868370373907,-0.22801800143879675,-0.7210290708462797
23.05764411027569,2.5930906740632524,-0.24548400450814012,-0.7478317219367143
24.06015037593985,2.6244303592860407,-0.23100362582233028,-0.7459418849767581
25.062656641604008,2.6677747551917155,-0.2316595410947974,-0.7338975456148702
26.065162907268167,2.6777628500519417,-0.2448300407967674,-0.714196601265474
27.06766917293233,2.6697117972133424,-0.25706709635051855,-0.7169762488589246
28.07017543859649,2.668750750176404,-0.3039239817644174,-0.734776630432909
29.07268170426065,2.6570753695137848,-0.32283546557418,-0.733529586814114
30.075187969924812,2.6440447873821142,-0.30118035818739347,-0.719075413140779
31.07769423558897,2.6429391675617437,-0.30067896728048715,-0.7342174791035515
32.08020050125313,2.635803335209473,-0.27741109508397455,-0.7709752393877041
33.08270676691729,2.624304466139322,-0.23929580356189256,-0.7767153027795173
34.08521303258145,2.6220628677325624,-0.21640694391423476,-0.7591767722321253
35.08771929824561,2.606119917817021,-0.2277181827265728,-0.7370786518270025
36.09022556390977,2.613774258277805,-0.2221314240646999,-0.7645525737582076
37.092731829573935,2.5921014337889363,-0.1846408293884915,-0.7970445943183285
38.095238095238095,2.5916157462522715,-0.18432251277133185,-0.7831250103201531
39.097744360902254,2.5954032101678584,-0.17849682857421975,-0.7187771388381228
40.100250626566414,2.6113692939187882,-0.19414952692921522,-0.6701781381440667
41.10275689223057,2.6086784100196008,-0.1887203847242511,-0.7230093342807828
42.10526315789473,2.5587151384362103,-0.19319712536627967,-0.8338650217946392
43.10776942355889,2.5017077083488823,-0.1394083259280319,-0.9861690295840383
44.11027568922306,2.5204859215716393,-0.13126284328132864,-0.9760053952257974
45.11278195488722,2.569336453674655,-0.1267086134899597,-0.7933292849775543
46.11528822055138,2.6235824445602676,-0.1112704980649135,-0.5765844773496381
47.11779448621554,2.6564508881644047,-0.1269648944752125,-0.402549809169551
48.1203007518797,2.6606465668567068,-0.21774144598916867,-0.3244313963785933
49.122807017543856,2.645159180587319,-0.22160211674629543,-0.34419025566419964
50.125313283208015,2.6896105170319307,-0.1392525258108387,-0.23309000800448643
51.127819548872175,2.7010656451357136,-0.16523491758645242,-0.036038827489076365
52.130325814536334,2.6837068629757486,-0.19278733436588966,0.10193297910371217
53.1328320802005,2.657955595800034,-0.21536453935592853,0.07885466266680433
54.13533834586466,2.666892878189565,-0.22490768774100287,-0.04448453374789913
55.13784461152882,2.6658701154994904,-0.2528008050951518,-0.048588070747606724
56.14035087719298,2.6765572807251283,-0.3062038472392018,0.023615411370902957
57.14285714285714,2.681542649375011,-0.31453857099752797,0.09675832033821062
58.1453634085213,2.6518423320965003,-0.3113794883201707,0.10186877784904187
59.14786967418546,2.608177546434199,-0.3437218247826887,0.05715839856520567
60.150375939849624,2.4493895566135824,-0.21873650274814097,-0.5320444363799213
61.152882205513784,2.3500152808212134,0.12052642568215888,-0.48785040851994116
62.15538847117794,2.2265137781051876,0.32195073996308377,0.38348718471284104
63.1578947368421,2.0026519947325934,-0.0758324021418944,0.7865973977372115
64.16040100250626,1.989661338278033,-0.3351015362273427,0.264062792995799
65.16290726817043,1.6970135663011248,-0.6139237369102675,0.49989761815102884
66.16541353383458,1.4193750338815843,-0.8801835956116553,0.28775560094946523
67.16791979949875,1.0762836050004818,-1.0283349259110448,0.3181741335176282
68.1704260651629,0.7037213300284955,-1.174243661146016,0.39774618283815794
69.17293233082707,0.4219966511700886,-1.2868523932034124,0.4132737781566597
70.17543859649122,0.1416809729978385,-1.3389750011507888,0.3578323113046528
71.17794486215539,-0.1710334993720981,-1.2649961706489954,0.2418533583701342
72.18045112781954,-0.46419639611529767,-1.1010538925984779,0.3038094505283021
73.1829573934837,-0.704005174253183,-0.981634396761895,0.40220756417881515
74.18546365914787,-1.0197507072011238,-0.6953102115418375,0.42840178366278364
75.18796992481202,-1.2835467278197352,-0.2767947248427685,0.42919069575943253
76.19047619047619,-1.4152714153261796,-0.03193182120132443,0.4572520702997394
77.19298245614034,-1.5274774143253418,0.08469316661464077,0.4681238854146969
78.19548872180451,-1.6414121145345562,0.14324041491530143,0.49297535690852445
79.19799498746866,-1.7340767852604073,0.1353503918975079,0.5258096049142884
80.20050125313283,-1.8165946838240428,0.1299605699152241,0.5708548833097004
81.203007518797,-1.8889903913292587,0.11940034776437533,0.6064300939197204
82.20551378446115,-1.9487512092816122,0.13053076663781565,0.5940386609223325
83.20802005012531,-1.9950257336273045,0.14776039515283235,0.5722261288224335
84.21052631578947,-2.0474549162500466,0.15265885487089528,0.5574525778817567
85.21303258145363,-2.083361719374787,0.15796491627298703,0.593028409916085
86.21553884711778,-2.120183717342747,0.12332188945781679,0.6425115894458564
87.21804511278195,-2.132441700069025,0.08834196645132533,0.6683995544060762
88.22055137844612,-2.143689017843542,0.09017316807500285,0.6516680561169972
89.22305764411027,-2.1527649824655044,0.1220435566961949,0.6269466956873105
90.22556390977444,-2.1647831694311575,0.1341003891944697,0.6160355634526982
91.2280701754386,-2.175670991429851,0.12285127678309227,0.6248261034147102
92.23057644110276,-2.180740631396764,0.11900642806984914,0.6339959177173732
93.23308270676692,-2.181316411456547,0.14491845413363919,0.6408557601643644
94.23558897243107,-2.192348343961006,0.17708584143178108,0.640689816624107
95.23809523809524,-2.1933204772931845,0.16785333102517885,0.6376273838725485
96.2406015037594,-2.202839641102351,0.13137968497121205,0.6378730048159498
97.24310776942356,-2.2073612956411504,0.1393471504469703,0.6311586969992
98.24561403508773,-2.2129959561204866,0.15021147501470922,0.6257876479847444
99.24812030075188,-2.210585221858368,0.1551434897469524,0.6298953705311078
100.25062656641605,-2.206564211686659,0.160742988395978,0.6378546458450894
101.2531328320802,-2.2188554429723113,0.1524871197209921,0.6410747429819252
102.25563909774436,-2.2241874701798454,0.13868350307906674,0.6385372001831185
103.25814536340852,-2.2230358174024487,0.13263240268105086,0.6357198813273627
104.26065162907268,-2.237981558420291,0.13142739844427814,0.640489920965861
105.26315789473684,-2.2370957104559444,0.1493752938983871,0.6357491624747816
106.265664160401,-2.2348186199536055,0.15344240377719964,0.6329505877339316
107.26817042606515,-2.231122657405596,0.14225777284373398,0.6416200032191449
108.27067669172932,-2.239006271278492,0.1403998118973118,0.641908657308643
109.27318295739347,-2.2355064830561604,0.1413021414686162,0.6375657190715818
110.27568922305764,-2.234292087305783,0.1271227109877774,0.6436595331500081
111.2781954887218,-2.2362030634209273,0.13791759234682582,0.6481034089596467
112.28070175438596,-2.219137860781767,0.13046088812020382,0.691149749369706
113.28320802005013,-2.189131122996628,0.10647747055581439,0.8023764104873446
114.28571428571428,-2.2109012046831906,0.10062375199960462,0.7471343862444988
115.28822055137844,-2.2331461712302025,0.09511157454611856,0.6018408847205728
116.2907268170426,-2.2614840821601057,0.09991797675995884,0.4412578675487332
117.29323308270676,-2.2905754587138185,0.10273043398068675,0.2765350045421387
118.29573934837092,-2.289771824897725,0.11183453171998495,0.15946412904635524
119.29824561403508,-2.3024616812949716,0.12757394738145142,0.09396580872235603
120.30075187969923,-2.301913693719541,0.12140340461742548,0.06116931326865356
121.3032581453634,-2.3077357190260854,0.10807971668347956,0.03531713992912161
122.30576441102755,-2.3255335810770608,0.11436338277715373,0.026128296034550916
123.30827067669172,-2.306564825625437,0.13169324110119646,0.007399366307877919
124.31077694235589,-2.324006092721374,0.14099846031721153,0.010368909108933936
125.31328320802004,-2.322267057579405,0.14032852038368013,0.006679675322893946
126.3157894736842,-2.317349230290846,0.1456510194900426,0.007167934007503936
127.31829573934836,-2.323925831007165,0.153193314941835,-0.0054080244815506075
128.32080200501252,-2.324196469245676,0.16889560083848026,-0.011610624115071019
129.32330827067668,-2.3237495520435045,0.17346793483280065,-0.015770956485136503
130.32581453634086,-2.328646834484007,0.17309354759991913,-0.01605327446000564
131.328320802005,-2.3270039064768926,0.1846632294174784,-0.02525837317383104
132.33082706766916,-2.3292312045512547,0.20242957423592037,-0.016276081143042756
133.33333333333331,-2.2016213809331493,0.09270500990440117,0.6375885459531349
134.3358395989975,-2.0849482951347516,-0.09273876469521118,0.26740118597997714
135.33834586466165,-1.8567874453022424,-0.31300827040700496,-0.49629171650329407
136.3408521303258,-1.7488543548150999,-0.07085910756122797,-0.6417806067184382
137.34335839598998,-1.7035725093373817,0.21369629376350255,-0.4430185366772805
138.34586466165413,-1.467255792035189,0.6362752851870395,-0.5330780957386465
139.34837092731829,-1.2453864267084576,0.9575320723553822,-0.46911625180241395
140.35087719298244,-0.9007749074531283,1.2682556773712814,-0.47709935498941947
141.35338345864662,-0.5857933288041819,1.4723233381767702,-0.4523198863630996
142.35588972431077,-0.28765610973241784,1.576069869645146,-0.4362940903007328
143.35839598997492,0.06898570994161601,1.651143571807249,-0.4172062043120289
144.36090225563908,0.3836215826517351,1.6271261004355484,-0.44001920100739106
145.36340852130326,0.7079182858560618,1.5479647254632694,-0.4344524543676116
146.3659147869674,0.9885869273118559,1.4248271906451884,-0.44265233496192186
147.36842105263156,1.244305305526392,1.2438194796272704,-0.44893963625260236
148.37092731829574,1.5358675322092656,0.8883517849870484,-0.4982770232127362
149.3734335839599,1.8074988536508145,0.340528209506612,-0.5226038676858522
150.37593984962405,1.929357970324116,-0.06848164954640046,-0.5649005196627207
151.3784461152882,2.0422366872173203,-0.24696055600646205,-0.5815683605876493
152.38095238095238,2.153898112553436,-0.2919286741102115,-0.5953927569671968
153.38345864661653,2.2531007714540596,-0.26404904427722886,-0.6281339290345673
154.38596491228068,2.3472330499131924,-0.1958248021472399,-0.6548760524222935
155.3884711779449,2.4140104439538996,-0.1943887332570034,-0.6684972222711445
156.39097744360902,2.4789901961944514,-0.21517181472664493,-0.6772571029734834
157.39348370927317,2.5306117163985746,-0.23750926993371269,-0.6940931831157928
158.39598997493732,2.57683944181479,-0.24672448257577775,-0.7270968077170724
159.3984962406015,2.6215364737893148,-0.22945152490636253,-0.7466666967847341
160.40100250626566,2.6518234664169715,-0.22986503265695635,-0.7375937966576791
161.4035087719298,2.6545686954656964,-0.2240732281908467,-0.7074220635000601
162.406015037594,2.6585944003350526,-0.2587184905559381,-0.692182145636219
163.40852130325814,2.654756767855447,-0.2961403163899852,-0.7101477105329157
164.4110275689223,2.6412364491902127,-0.3063861481331089,-0.7304576744413293
165.41353383458645,2.6401686767768884,-0.293268793289183,-0.7399573423413556
166.41604010025063,2.630267011089926,-0.308498966665193,-0.7335096445443426
167.41854636591478,2.6234161610123805,-0.3093408358751773,-0.7358963859104806
168.42105263157893,2.6201184186861295,-0.28655133478973605,-0.7642704831307527
169.4235588972431,2.5974367738822473,-0.24169072897981728,-0.7845164386948098
170.42606516290726,2.5979149460846576,-0.2101732866874074,-0.7738305239042753
171.42857142857142,2.595072853158217,-0.20170896997917884,-0.7425321139413495
172.43107769423557,2.592724730089929,-0.21520248395264613,-0.7411718182052749
173.43358395989975,2.587744664002158,-0.2152816623875435,-0.7419318318012866
174.4360902255639,2.5680704585547964,-0.19778559278363034,-0.7598349316393563
175.43859649122803,2.5630697816391734,-0.1664934572455396,-0.7672819134637219
176.44110275689223,2.5992411680737084,-0.18941042009706627,-0.7590364485441226
177.4436090225564,2.5910635226509444,-0.16714892083730984,-0.7703374498747922
178.44611528822054,2.566448807310904,-0.1414470485106399,-0.7919918316031181
179.4486215538847,2.540511740782362,-0.14149301123995084,-0.9144411399681344
180.45112781954887,2.445042135107783,-0.09676674154950599,-0.9862517500351855
181.45363408521305,2.5272705248071423,-0.10811803755243526,-0.7254667661546169
182.4561403508772,2.698034873344756,-0.19255752700812998,-0.43948106501766626
183.45864661654133,2.6372780071851136,-0.19168303014196306,-0.48522327232554197
184.4611528822055,2.6193791444728824,-0.12711083519127628,-0.37847596089908553
185.4636591478697,2.658510872672792,-0.1325497109628895,-0.1738459151237213
186.46616541353384,2.616540983684959,-0.16958564486517616,-0.13063307822526563
187.468671679198,2.6815091606647017,-0.19942562084008092,0.03605613829620406
188.47117794486215,2.7289580736834997,-0.21692533964364877,0.01956134655713258
189.4736842105263,2.6321094082787675,-0.21444499449987403,-0.07859186523645055
190.47619047619045,2.6441208139528056,-0.24301726945723015,0.07081062649138634
191.47869674185463,2.660735583193522,-0.29587568128964287,0.021273403517647775
192.4812030075188,2.611568094707352,-0.2729839602701269,-0.03417728416425472
193.48370927318297,2.6835182743132164,-0.2958404503177044,0.20114940661317562
194.48621553884712,2.644078044511639,-0.39494903567485984,0.15720880360527184
195.48872180451127,2.5190150980994273,-0.45341308808101044,-0.25568536304991635
196.49122807017545,2.427186276887332,-0.10046180529626185,-0.6678756039087137
197.4937343358396,2.2968510042779453,0.44326927631601,-0.18858081916693095
198.49624060150376,2.0304052364819904,0.29982409970575935,0.7884314135041458
199.4987468671679,2.0470085779946663,-0.06871111428644437,0.5703135218437058
200.5012531328321,1.792571338730366,-0.5161987828391669,0.41675771928398403
201.50375939849624,1.4389325321359494,-0.8469700141687012,0.2804313971310946
202.5062656641604,1.2494548617501875,-1.0171745163659114,0.3717533753842619
203.50877192982455,0.9805549924904284,-1.1535717157402767,0.38952114401676496
204.5112781954887,0.6450069181849211,-1.2622400457192624,0.3171710655249381
205.51378446115288,0.3355827640421979,-1.2735601300027184,0.34411093614306515
206.51629072681703,0.024634320604772095,-1.249783134539867,0.35858947461135293
207.5187969924812,-0.2754432829626014,-1.2199624913354359,0.3891726646456824
208.52130325814537,-0.5437645340735946,-1.1390092638584315,0.3349960641715054
209.52380952380952,-0.8018822567864751,-0.9406651871205602,0.3313280024846522
210.52631578947367,-1.128423151430293,-0.5333929528118576,0.3682342878763101
211.52882205513785,-1.3412435075553708,-0.1349650475280814,0.41974305484701896
212.531328320802,-1.4644658794848038,0.055108945104015886,0.4888000003215244
213.53383458646616,-1.5877747444848185,0.12302216953271523,0.5376885446284246
214.5363408521303,-1.6744170880268177,0.13598915774775322,0.5656450828548312
215.5388471177945,-1.7635579919284083,0.12049698157437065,0.5585122595923078
216.54135338345864,-1.8394949741399473,0.10953497698957751,0.5384475260336591
217.5438596491228,-1.9240525135914077,0.11224491332797823,0.5299321791999246
218.54636591478695,-1.9771249247173186,0.1336025328204031,0.5507722444718041
219.54887218045113,-2.0280471416816193,0.15041368205185554,0.5963794428839888
220.55137844611528,-2.06180329326102,0.16013213887509234,0.6253184576248332
221.55388471177943,-2.0910728381121553,0.1522590563978932,0.63524937596616
222.5563909774436,-2.118737401924342,0.1042529136395887,0.6480480270076793
223.55889724310777,-2.1417963254560712,0.08485887119189003,0.6543577847270625
224.56140350877192,-2.156329320776319,0.07626993844961093,0.6458660995153986
225.56390977443607,-2.1585838142702274,0.1032832735565375,0.6311080368613948
226.56641604010025,-2.168440450445644,0.1107898637363631,0.6202013266427042
227.5689223057644,-2.161328680918193,0.13482101273368916,0.6152639229793059
228.57142857142856,-2.182225632500919,0.14975190302836297,0.6297508991850267
229.5739348370927,-2.1783640903536607,0.16801340202054613,0.6506748541884407
230.5764411027569,-2.198386309007567,0.15864658758534383,0.6453687207958019
231.57894736842104,-2.1987605484469057,0.14601238791141327,0.6309370707906362
232.5814536340852,-2.2019591010401203,0.14564885533447774,0.6120317792822024
233.58395989974937,-2.206031435100128,0.13403243069011173,0.6152761082452073
234.58646616541353,-2.2146165506049442,0.14851139504084446,0.632864990549864
235.58897243107768,-2.2077410312060257,0.15966665349964546,0.6465407832500394
236.59147869674183,-2.216140923441564,0.15753894034269494,0.6490075462105771
237.593984962406,-2.2132861516909443,0.1484355764562548,0.6325835607105116
238.59649122807016,-2.2321783327847258,0.1380008372647074,0.6219454868158777
239.59899749373432,-2.229576753074678,0.13546365913163072,0.6196772535704737
240.6015037593985,-2.2430343249554756,0.13246371193600368,0.6387818458955061
241.60401002506265,-2.2310621540713114,0.14621564381186059,0.6500598227266179
242.6065162907268,-2.225927329359597,0.15451987654258006,0.6525170844547414
243.60902255639095,-2.229888311644239,0.15986634008194084,0.652738366666316
244.6115288220551,-2.23430132834802,0.14124357958762185,0.6403483380501113
245.6140350877193,-2.2347676968028782,0.1297927030172312,0.6344753187420592
246.61654135338344,-2.243391300008016,0.13027866525761164,0.6344025454457438
247.6190476190476,-2.2394981095427853,0.139655053406219,0.6432431350845434
248.62155388471177,-2.2055630282244785,0.12246641972329637,0.7698284593222202
249.62406015037593,-2.183191487698148,0.09794346033015155,0.8107130303072145
250.62656641604008,-2.198446260626068,0.091974202350345,0.6871660025905513
251.62907268170423,-2.23848753467147,0.0815684345585867,0.5188950009289952
252.6315789473684,-2.266908420191675,0.1214510839808646,0.3326121788118273
253.63408521303256,-2.293333535190913,0.11337245922967973,0.18969174823106813
254.63659147869672,-2.3004643302351258,0.09828051549117497,0.1024449879723039
255.6390977443609,-2.2980697412656226,0.11072353018268613,0.07070189044317059
256.64160401002505,-2.303932488592919,0.13608992937700456,0.04501887566566119
257.64411027568923,-2.302015488196233,0.1289366314885845,0.024995335205418957
