Time [s],Longitude [rad],Latitude [rad],Altitude [m],V North [m/s],V East [m/s],V Down [m/s],Roll [rad],Pitch [rad],Yaw [rad]
1.0025062656641603,0.609001589236304,0.5733582642417692,-14.989928,0.010826000000000002,0.03162800000000002,-0.006314,0.0340862802914492,-0.0060213859193802,0.1219985147144036
2.0050125313283207,0.6090016192559671,0.5733585396547252,-14.982712,0.008357999999999866,0.03445799999999999,-0.004150000000000001,0.0319046187264563,-0.0061959188445797,0.1432042651261347
3.007518796992481,0.6090016557333485,0.5733588169875433,-14.97636,-0.0002689999999998527,0.03217600000000001,0.005855000000000001,0.0317649923862968,-0.0069638637154572,0.1649859741910239
4.010025062656641,0.6090016981448493,0.5733590936222298,-14.97682,-0.0037480000000000846,0.026063000000000003,0.00708,0.0351509311351657,-0.0084823001646923,0.1865582437456739
5.012531328320802,0.6090017461414037,0.5733593688606528,-14.982259,0.0006720000000000059,0.029359999999999997,0.0004579999999999992,0.0362679418564421,-0.0095818575934487,0.2077639941574049
6.015037593984962,0.6090018004211435,0.5733596449717405,-14.984674,0.0042240000000000055,0.038648000000000016,-0.005167,0.0336324946859307,-0.0094596845458092,0.2291442774943355
7.017543859649122,0.6090018602859367,0.5733599216064269,-14.982932,0.0022930000000001005,0.04142299999999999,-0.000942,0.0365122879517213,-0.00918043186549,0.2505943740013458
8.020050125313283,0.6090019295755081,0.5733601989392451,-14.984282,-0.00020700000000006824,0.029937999999999965,0.005974,0.035395277230445,-0.0094771378383291,0.2716430447803974
9.022556390977442,0.6090020037520013,0.5733604760975303,-14.990329,-0.0002969999999999917,0.021031999999999995,0.0017090000000000004,0.032620203719774,-0.0099832833214075,0.2922379125006381
10.025062656641603,0.6090020817682188,0.5733607536048813,-14.993146,-0.0013190000000000701,0.030173000000000005,-0.007799,0.0358490628359635,-0.0097389372261282,0.3138625593861403
11.027568922305765,0.6090021657185558,0.5733610300650349,-14.98827,-0.004350999999999994,0.04305800000000004,-0.004515,0.0376467519655176,-0.0100530964914873,0.3362725869817475
12.030075187969924,0.6090022575228745,0.5733613056525237,-14.98532,-0.005993999999999833,0.04332400000000003,0.008708,0.036006142468643,-0.0109083078249645,0.3580368427541168
13.032581453634084,0.6090023577047736,0.5733615810654797,-14.993448,-0.0024610000000000465,0.027507999999999977,0.010348999999999999,0.0349589449174464,-0.011309733552923,0.3786840703519172
14.035087719298245,0.6090024624245287,0.5733618552567051,-15.008282,0.001222999999999974,0.019780999999999938,0.0012890000000000002,0.0360235957611629,-0.0104021623418861,0.3995582256590618
15.037593984962406,0.6090025694132118,0.5733621297969965,-15.018021,-8.500000000011276e-05,0.028808000000000056,-0.008964,0.0352731041828053,-0.0087964594300513,0.4217239071593898
16.040100250626566,0.609002683732278,0.5733624045118209,-15.018629,-0.007747999999999866,0.041498000000000035,-0.008119999999999999,0.0392524548773524,-0.0074700091985355,0.4453207411930606
17.042606516290725,0.6090028062543914,0.5733626780049146,-15.014297,-0.014402000000000026,0.04335699999999998,-0.0014330000000000002,0.0404916386462684,-0.007033676885537,0.468760530500637
18.045112781954884,0.609002937503151,0.5733629478328169,-15.011497,-0.013448000000000127,0.038422999999999985,0.00371,0.0404916386462684,-0.0080983277292536,0.4913101844364037
19.047619047619047,0.6090030755586949,0.5733632167880547,-15.014365,-0.005968999999999891,0.03101199999999993,0.0061,0.038763762686794,-0.00921533845053,0.5117130833922174
20.050125313283207,0.6090032191992923,0.5733634850451608,-15.023951,-0.0016620000000000523,0.028303000000000078,0.0059050000000000005,0.0405265452313083,-0.0085521133347721,0.5322730619807107
21.052631578947366,0.609003367377746,0.5733637538258655,-15.037676,-0.003490999999999911,0.026171999999999973,0.0015449999999999995,0.0395317075576715,-0.0064053583548191,0.5542467921699044
22.05513784461153,0.6090035204431213,0.5733640213848399,-15.048869,-0.010153999999999996,0.03081199999999995,-0.005952,0.0375769387954379,-0.0040317105721068,0.5784893805735206
23.05764411027569,0.6090036785699515,0.5733642871984849,-15.050676,-0.01726899999999998,0.03868300000000002,-0.010064,0.0401251195033496,-0.0028274333882307,0.6033079799901725
24.06015037593985,0.6090038442016976,0.5733645498705373,-15.043322,-0.017353000000000174,0.04120100000000004,-0.006662999999999999,0.0425511271636217,-0.0029845130209102,0.6275506033003738
25.062656641604008,0.6090040182110239,0.573364809750063,-15.035205,-0.01457799999999998,0.04285799999999995,0.004436999999999999,0.0439822971502571,-0.0043284165449459,0.6515139390236708
26.065162907268167,0.6090042016451284,0.5733650670115946,-15.032809,-0.013892999999999933,0.03855300000000006,0.004338000000000001,0.0407010781565077,-0.0052708943410229,0.674238160791222
27.06766917293233,0.6090043918860168,0.5733653220041984,-15.034649,-0.016537000000000024,0.03580199999999989,0.002215,0.0408057979116274,-0.0056199601914217,0.6965260153391896
28.07017543859649,0.6090045877119589,0.5733655740297424,-15.036181,-0.01898399999999989,0.033944000000000196,-0.001932,0.03998549316319,-0.0050265482457436,0.7178888279303077
29.07268170426065,0.6090047891229545,0.5733658232627596,-15.03613,-0.018001000000000156,0.03255299999999983,0.000174,0.0431619924018197,-0.0039269908169872,0.7387978374626146
30.07518796992481,0.6090049966426027,0.5733660705759146,-15.036899,-0.012982999999999967,0.027351000000000125,0.001247,0.0410675972994265,-0.0034382986264287,0.7599861520351182
31.07769423558897,0.6090052090491727,0.57336631492201,-15.037781,-0.014349999999999863,0.028953999999999924,-0.0029259999999999998,0.0419228086329037,-0.0034906585039886,0.7816282522131405
32.08020050125313,0.6090054282625267,0.5733665569991772,-15.031874,-0.02155600000000013,0.036759999999999904,-0.010574,0.0446455222660149,-0.0037000980142278,0.8040906222330152
33.08270676691729,0.6090056551553293,0.5733667948875542,-15.016734,-0.029361999999999888,0.04399400000000009,-0.005695999999999998,0.0472460628514865,-0.0050963614158234,0.8258025181278245
34.08521303258145,0.6090058899021138,0.573367028587141,-15.002558,-0.02714100000000008,0.04165900000000011,0.008358999999999998,0.0488692190558412,-0.0075747289536554,0.8456993239604375
35.08771929824561,0.6090061333755444,0.573367257399806,-14.999967,-0.018186999999999953,0.03104399999999985,0.013554,0.0463210383479295,-0.0089535390627308,0.8634143984148874
36.09022556390977,0.6090063817358969,0.5733674839435429,-15.007959,-0.013298000000000032,0.02203200000000005,0.005801000000000001,0.0418879020478638,-0.0082030474843732,0.8797331920144491
37.092731829573935,0.6090066328887764,0.5733677076947529,-15.016387,-0.020094000000000056,0.020863000000000076,-0.0048330000000000005,0.0430572726467001,-0.0062482787221396,0.8977100658566984
38.095238095238095,0.609006888230446,0.5733679283043704,-15.018111,-0.0274319999999999,0.025733999999999924,-0.006577,0.0474031424841659,-0.005497787143782,0.9165596392315296
39.097744360902254,0.6090071477609057,0.5733681448997306,-15.017496,-0.025363000000000024,0.028853999999999935,0.002687,0.0505272818452358,-0.0068242373752978,0.9349031020298676
40.100250626566414,0.6090074127018862,0.5733683578298994,-15.019654,-0.017989000000000033,0.028043999999999958,0.0023350000000000003,0.0451865743341332,-0.0078016217564145,0.9526879547478124
41.10275689223057,0.609007683751519,0.5733685688402059,-15.021162,-0.01563800000000004,0.029272000000000187,-0.005274,0.0469493568786474,-0.0070511301780569,0.970577614487339
42.10526315789473,0.6090079605607384,0.5733687779306502,-15.016326,-0.019013999999999864,0.03021699999999994,-0.006805,0.0455181868920121,-0.006457718232379,0.9899856583162238
43.10776942355889,0.6090082438276759,0.5733689830068374,-15.006411,-0.029133000000000076,0.030977000000000032,-0.0021720000000000003,0.0447327887286146,-0.0061610122595399,1.0100569796207437
44.11027568922306,0.6090085325051343,0.5733691833706356,-14.999037,-0.032232999999999956,0.02360799999999985,0.007729000000000001,0.0441568300754565,-0.0071034900556168,1.0295348017131227
45.11278195488722,0.6090088251968497,0.5733693776257812,-15.003215,-0.03182600000000013,0.019201000000000024,0.013406999999999999,0.0458148928648511,-0.0086568330898917,1.049047582750419
46.11528822055138,0.6090091192848288,0.5733695666449392,-15.018343,-0.02786899999999992,0.020195000000000185,0.006839,0.0476474885794451,-0.0084473935796525,1.0692759487810335
47.11779448621554,0.6090094165144004,0.5733697507771753,-15.032555,-0.022990999999999984,0.024763999999999786,-0.008645,0.0476300352869252,-0.0069987703004972,1.0902723120424027
48.1203007518797,0.6090097196780914,0.5733699319423516,-15.032673,-0.023387000000000047,0.028693999999999997,-0.017053,0.0485550597904822,-0.0049043751981039,1.1122111007399715
49.122807017543856,0.6090100299976324,0.5733701097914026,-15.017225,-0.031479000000000035,0.03433300000000017,-0.01125,0.0499513231920777,-0.0055850536063817,1.134115000305793
50.125313283208015,0.6090103474730234,0.5733702825789984,-14.999555,-0.03847999999999985,0.035636,0.004833999999999998,0.0482234472326033,-0.0080110612666539,1.1567344325050546
51.127819548872175,0.6090106708825338,0.5733704487343433,-14.992517,-0.040908000000000166,0.026408999999999905,0.015668,0.0488866723483611,-0.0090582588178504,1.1794759679387854
52.130325814536334,0.6090109981317685,0.5733706079083709,-15.002338,-0.038713999999999915,0.01225199999999993,0.016574,0.0482409005251232,-0.008604473212332,1.2010831266251825
53.1328320802005,0.6090113274753984,0.5733707611482793,-15.024832,-0.03655799999999998,0.008049000000000195,0.006713,0.0502654824574366,-0.0083077672394928,1.2215210194324988
54.13533834586466,0.6090116578662258,0.5733709077559365,-15.044678,-0.037129999999999996,0.021880999999999817,-0.012343999999999999,0.0534419816960663,-0.0077143552938148,1.2418890118032728
55.13784461152882,0.6090119926203763,0.5733710484294742,-15.045429,-0.035592999999999986,0.03700400000000004,-0.02185,0.0548906049752216,-0.0064926248174188,1.262169772618032
56.14035087719298,0.6090123355775743,0.573371184390623,-15.026434,-0.03002400000000005,0.03597899999999998,-0.013452000000000002,0.0489564855184409,-0.0053756140961425,1.28108900208331
57.14285714285714,0.6090126860396881,0.5733713152903168,-15.007834,-0.031862999999999975,0.02237200000000006,0.011565000000000002,0.0423591409459023,-0.0061261056745001,1.3002702927357754
58.1453634085213,0.6090130399924605,0.5733714426993521,-15.009281,-0.03506600000000004,0.006564999999999932,0.02479,0.044610615680975,-0.0075921822461753,1.3192245509591414
59.14786967418546,0.6090133925489694,0.5733715634761365,-15.032302,-0.03848499999999999,0.0012630000000000141,0.014172999999999998,0.0487295927156816,-0.0074700091985355,1.3380915776264923
60.15037593984962,0.6090137442328136,0.5733716781442683,-15.058142,-0.04052599999999995,0.0100070000000001,-0.006886,0.0476300352869252,-0.0049916416607036,1.3583723384412518
61.15288220551378,0.6090140990582507,0.5733717853074844,-15.065845,-0.03938000000000008,0.023500999999999994,-0.025931999999999997,0.0514872129338327,-0.002129301687433,1.378688005841051
62.15538847117794,0.6090144592942082,0.5733718874092457,-15.051023,-0.03367399999999998,0.028586999999999918,-0.017175000000000003,0.051696652444072,-0.0006632251157578,1.3982007170651776
63.1578947368421,0.609014825987884,0.5733719844495521,-15.028008,-0.03320499999999993,0.02253700000000003,0.0032010000000000025,0.0446455222660149,-0.001483529864195,1.4181848068136829
64.16040100250626,0.6090151972194159,0.5733720762538708,-15.015758,-0.034865000000000035,0.010456999999999939,0.015071999999999999,0.0439473905652172,-0.0031241393610697,1.4379767532648358
65.16290726817043,0.609015568101882,0.5733721621240698,-15.020795,-0.038542999999999994,0.0007829999999999782,0.015689,0.0447153354360947,-0.0044854961776252,1.4577338280375338
66.16541353383458,0.6090159377626175,0.5733722415365509,-15.034849,-0.04100799999999999,0.0023960000000000647,0.0021069999999999995,0.0467399173684081,-0.0040666171571466,1.4785730593063462
67.16791979949875,0.6090163086450835,0.5733723150149124,-15.044504,-0.04299700000000001,0.012151000000000023,-0.009547,0.0497418836818383,-0.0023561944901921,1.5005293536563125
68.1704260651629,0.6090166824946094,0.5733723818610228,-15.042985,-0.041125999999999996,0.01790500000000006,-0.009517,0.0534594349885863,-0.0007679448708775,1.5224506367014838
69.17293233082707,0.6090170591366619,0.5733724427730136,-15.033721,-0.038795000000000024,0.01431099999999974,-0.005574000000000001,0.0508763476956347,-0.0001221730476395,1.5446163880149817
70.17543859649122,0.6090174390948401,0.5733724974018193,-15.024077,-0.042252999999999985,0.007843000000000266,0.0029110000000000004,0.0512952267161133,-0.0010646508437164,1.5663456499358486
71.17794486215539,0.6090178209728804,0.5733725452238407,-15.019212,-0.045023000000000035,0.003623000000000154,0.005783,0.05232497097479,-0.0031066860685498,1.587691026687739
72.18045112781954,0.6090182033745195,0.573372586239078,-15.020012,-0.04799199999999998,0.006147999999999598,0.0057859999999999995,0.0515046662263526,-0.0046600291028247,1.6093331966789313
73.1829573934837,0.6090185856016257,0.5733726185276693,-15.025208,-0.04485600000000001,0.008002000000000287,0.0029259999999999998,0.0502829357499566,-0.0043982297150255,1.6304865523065175
74.18546365914787,0.6090189685268637,0.5733726436604105,-15.03221,-0.04249999999999998,0.007176999999999989,0.0013240000000000005,0.0481885406475634,-0.0026354471705114,1.6515178046996344
75.18796992481202,0.6090193538955625,0.5733726618118348,-15.038701,-0.040857000000000004,0.0008789999999998521,-0.0037930000000000004,0.051696652444072,0.0001047197551196,1.6735437376867552
76.19047619047619,0.6090197390897284,0.5733726736800736,-15.041551,-0.042485,-0.0034559999999999036,-0.003584,0.0531976356007871,0.001239183768916,1.6962156344833317
77.19298245614034,0.6090201237602956,0.5733726794396602,-15.040958,-0.046953,-0.001100000000000101,-0.002259,0.0537561409614253,0.0008377580409573,1.718678074316376
78.19548872180451,0.6090205080817969,0.5733726771707321,-15.03637,-0.0473,0.004510000000000236,-0.0056370000000000005,0.0558505360638185,0.0013089969389958,1.739883754914937
79.19799498746866,0.6090208931014298,0.5733726679204871,-15.025091,-0.045668999999999994,0.006467999999999918,-0.0055109999999999985,0.0543320996145834,0.0011344640137964,1.7606183187885072
80.20050125313283,0.6090212810881226,0.5733726511653263,-15.01231,-0.046391,0.001522999999999719,0.0011659999999999986,0.0533547152334666,0.0002443460952792,1.781213221415333
81.203007518797,0.6090216682021505,0.5733726272543156,-15.005013,-0.04252600000000001,-0.007759999999999767,0.009755,0.0524645973149495,-0.0002094395102392,1.8009702787347386
82.20551378446115,0.6090220514764544,0.573372596012922,-15.01017,-0.03828599999999999,-0.013501999999999903,0.014221999999999999,0.0546637121724624,-0.0010471975511965,1.819889647826357
83.20802005012531,0.6090224338780935,0.5733725583138101,-15.024814,-0.03609900000000002,-0.009892000000000234,0.002012,0.0553443905807401,-0.000558505360638,1.83826798230315
84.21052631578947,0.6090228136617386,0.573372516425908,-15.030959,-0.03490299999999996,-0.0031249999999998224,-0.016881,0.0554840169208997,0.0011868238913561,1.8575014583002496
85.21303258145363,0.6090231941435156,0.5733724679057548,-15.018404,-0.03778900000000002,0.0016129999999998645,-0.018307,0.0585383431118898,0.0013788101090754,1.8777124583048068
86.21553884711778,0.6090235753234242,0.5733724146732126,-14.993446,-0.04095599999999999,0.0009510000000001462,-0.004637000000000002,0.0580671042138513,-0.000925024503557,1.897661536748517
87.21804511278195,0.6090239573759975,0.5733723548084193,-14.971551,-0.04175300000000004,-0.0042200000000001125,0.010702000000000003,0.054768431927582,-0.0042935099599059,1.9175933015260476
88.22055137844612,0.6090243359379123,0.5733722879623089,-14.968103,-0.044572999999999974,-0.012108000000000008,0.022945999999999998,0.0525693170700692,-0.0072256631032565,1.9383451790657973
89.22305764411027,0.6090247124054319,0.5733722141348816,-14.983008,-0.04521700000000001,-0.02002000000000015,0.011108,0.0537910475464652,-0.0072256631032565,1.959690555817688
90.22556390977444,0.6090250843350955,0.5733721328025385,-15.002242,-0.04309299999999999,-0.02353499999999986,-0.0019640000000000005,0.055065137900421,-0.0054803338512621,1.9811407221378683
91.2280701754386,0.6090254520759689,0.5733720446634113,-15.015203,-0.03884900000000002,-0.016329000000000038,-0.008957999999999997,0.0575609587307729,-0.0034208453339088,2.00220684620944
92.23057644110276,0.6090258165007167,0.5733719514628292,-15.017543,-0.037939999999999974,-0.00901799999999997,-0.010532,0.057246799465414,-0.0020071286397933,2.022522513609239
93.23308270676692,0.609026179878267,0.5733718518045289,-15.010975,-0.038185000000000024,-0.005700000000000038,-0.008035,0.0562868683768171,-0.0015533430342749,2.0423843604969347
94.23558897243107,0.6090265432558173,0.5733717446413128,-14.998349,-0.04531699999999994,-0.008185999999999805,-0.004326999999999999,0.0530231026755877,-0.0025132741228717,2.063520140658953
95.23809523809524,0.6090269047135054,0.5733716306713127,-14.984652,-0.047597,-0.017113000000000156,0.0023580000000000007,0.0540528469342643,-0.0042586033748661,2.084254721985816
96.2406015037594,0.609027262680535,0.5733715100690613,-14.976855,-0.044875,-0.023406000000000038,0.009454999999999998,0.0580845575063712,-0.0057072266540214,2.1046575860350445
97.24310776942356,0.6090276159351755,0.5733713824854931,-14.982265,-0.03872600000000004,-0.025031999999999943,0.015071000000000001,0.0640361302556719,-0.007033676885537,2.123751662584788
98.24561403508773,0.609027964826493,0.5733712489678053,-14.999119,-0.03410100000000005,-0.0215209999999999,0.005193999999999999,0.0578053048260521,-0.0070511301780569,2.1417808613980114
99.24812030075188,0.6090283081327569,0.5733711103886626,-15.013345,-0.03404099999999999,-0.019626000000000143,-0.009762999999999999,0.0555189235059396,-0.0052534410485027,2.1598622630091624
100.25062656641605,0.6090286489955599,0.5733709660499334,-15.015697,-0.03334199999999998,-0.016508999999999885,-0.009862,0.0602836723638841,-0.0032812189937492,2.1778567123169794
101.2531328320802,0.6090289860186383,0.5733708157770849,-15.013022,-0.03468799999999994,-0.016515000000000057,0.0011410000000000003,0.0605280184591633,-0.0021118483949129,2.1953973585659847
102.25563909774436,0.6090293200746572,0.5733706604427814,-15.015333,-0.038370000000000015,-0.024565999999999866,0.0076679999999999995,0.0563566815468969,-0.0012740903539558,2.213234675881244
103.25814536340852,0.6090296501164187,0.5733704984762269,-15.023215,-0.04172200000000004,-0.030530000000000168,0.0017360000000000006,0.0654149403647474,-0.0009948376736366,2.2321713411857504
104.26065162907268,0.6090299749221925,0.5733703307500857,-15.026123,-0.03858600000000001,-0.0271539999999999,-0.009716,0.0612959633300408,-0.0004537856055184,2.249101052383388
105.26315789473684,0.6090302939683797,0.5733701583115557,-15.014884,-0.02814899999999998,-0.014995000000000092,-0.016404,0.0529532895055079,-0.001169370598836,2.264652058191705
106.265664160401,0.609030610920172,0.5733699809861037,-14.993383,-0.022453000000000056,-0.008662999999999865,-0.0032520000000000014,0.0507367213554751,-0.0026005405854714,2.280988148004154
107.26817042606515,0.609030925777569,0.5733697991227956,-14.976014,-0.025757999999999948,-0.015335000000000099,0.010588000000000002,0.051068333913354,-0.0038571776469074,2.2988427789855934
108.27067669172932,0.6090312380169722,0.5733696148160267,-14.976242,-0.026650000000000063,-0.028677000000000064,0.021596999999999998,0.0469144502936075,-0.0047822021504644,2.3170465630838946
109.27318295739347,0.609031542053328,0.5733694257968687,-14.997536,-0.031650999999999874,-0.04166099999999995,0.018772,0.0447502420211346,-0.0044854961776252,2.3356695054553542
