Time [s],Longitude [rad],Latitude [rad],Altitude [m],V North [m/s],V East [m/s],V Down [m/s],Roll [rad],Pitch [rad],Yaw [rad]
2.0050125313283207,0.6089843637092515,0.5733525552697859,-9.853286,0.011748999999999801,0.060472,0.0050609999999999995,-0.0110479341651241,-0.0084997534572124,-2.8946984474158457
3.007518796992481,0.6089842584658975,0.5733522280205512,-9.852535,0.009530000000000288,-0.009413999999999895,0.043079999999999896,-0.0086917396749317,-0.0127059969545186,-2.972260879374473
4.010025062656641,0.6089841923179189,0.5733518889030775,-9.874116,0.013551999999999807,-0.03253500000000001,-0.0091599999999999,-0.0056723200689815,-0.0111875605052835,-3.0384612004493263
5.012531328320802,0.6089841586330643,0.5733515405353589,-9.911898,0.0095770000000001,-0.022224999999999995,-0.004800000000000099,-0.0040840704496667,-0.0093724180832095,-3.095027286599877
6.015037593984962,0.6089841490337534,0.5733511832664608,-9.943602,0.016264000000000098,-0.012337000000000098,-0.0385229999999998,-0.0131248759749973,-0.0039269908169872,-3.1404408410032327
7.017543859649122,0.6089841612510583,0.5733508239031679,-9.953271,0.014743999999999903,-0.022818999999999895,0.0126269999999999,-0.0179768912955415,-0.0045378560551851,3.109862689961584
8.020050125313283,0.608984191968853,0.5733504608746834,-9.948586,-0.0054560000000002,-0.016006000000000006,-0.0038820000000000018,-0.0125663706143591,-0.0053930673886624,3.0903324032718897
9.022556390977442,0.6089842359511501,0.5733500945300736,-9.941931,-0.0013139999999998014,-0.033434000000000096,0.029489,-0.0165282680163862,-0.0078190750489346,3.084223628716862
10.025062656641603,0.6089842897072911,0.5733497238221404,-9.952058,0.0008900000000001025,-0.038211999999999996,0.006949,-0.0114144533080429,-0.0082903139469729,3.087784013124468
11.027568922305765,0.6089843429398334,0.5733493485763512,-9.982107,-0.003965000000000503,-0.0361039999999999,-0.007589000000000101,-0.0111177473352038,-0.0071907565182165,3.10024575125017
12.030075187969924,0.6089843912854536,0.5733489700144365,-10.001052,0.016034000000000402,-0.0016009999999999011,-0.0371999999999999,-0.0051661745859032,-0.002094395102393,3.117297705308617
13.032581453634084,0.6089844326497569,0.5733485912779889,-10.003951,0.014963999999999799,-0.013491,0.024811,-0.0009773843811168,-0.0026005405854714,3.139131896424113
14.035087719298245,0.608984464938348,0.5733482183011276,-10.013603,0.1168210000000003,-0.044233000000000106,0.034709,-0.099710660166436,-0.0118856922060812,-3.043138525765038
15.037593984962406,0.6089844525465102,0.573347886339504,-10.02367,0.21440199999999981,-0.322113,-0.116945,0.0408232512041473,0.0318871654339365,-2.7556654493888075
16.040100250626566,0.6089843747048257,0.5733476133700088,-9.967574,0.04411999999999988,-0.020392999999999994,0.083141,0.1175828317068579,0.0023038346126325,-2.466289841954855
17.042606516290725,0.6089842633528194,0.5733474182421985,-9.929132,0.004879000000000078,0.1654710000000001,0.0009549999999999002,0.1234820445785988,-0.0047996554429843,-2.22377625512378
18.045112781954884,0.6089840725883322,0.5733472824555828,-9.893981,-0.02823700000000018,0.07623999999999981,0.0180210000000001,0.0517315590291119,-0.0113446401379631,-2.0043184677115504
19.047619047619047,0.6089838458700623,0.5733471953636531,-9.89854,-0.045349999999999724,0.053509000000000306,0.030422,0.0602836723638841,-0.0065973445725384,-1.8162598865809847
20.050125313283207,0.6089835976842427,0.5733471492869608,-9.931339,-0.024601000000000095,-0.007272000000000195,-0.0360930000000001,0.0395666141427114,0.0013788101090754,-1.6465611219838483
21.052631578947366,0.6089833241911489,0.5733471431783085,-9.962246,-0.009426999999999963,0.026414999999999883,-0.039693999999999896,0.013229595730117,0.0127409035395587,-1.4938102025552773
22.05513784461153,0.6089830297541041,0.5733471754668995,-9.947344,-0.02210300000000004,0.054072000000000106,-0.026593,0.0548731516827017,0.0160221225333079,-1.3576044284769593
23.05764411027569,0.6089827292084069,0.5733472442328721,-9.899474,-0.010182999999999998,0.054574,0.052634999999999994,0.0435634181297784,0.0086742863824118,-1.2358329810982405
24.06015037593985,0.6089824295353743,0.573347349476226,-9.884092,-0.017763,-0.00755,0.048040000000000006,0.0289724655831058,0.004031710572107,-1.1352672317713743
25.062656641604008,0.6089821300368747,0.5733474903242967,-9.901922,-0.02720599999999998,-0.0281749999999999,-0.0440550000000001,0.0385019632989949,0.0076969020012951,-1.0648777365193
26.065162907268167,0.6089818253023873,0.573347662239228,-9.909659,-0.01847500000000002,0.016665999999999903,-0.019935999999999898,0.0290073721681457,0.0109257611174846,-1.0198831134963016
27.06766917293233,0.6089815151573792,0.5733478589378346,-9.907125,-0.06797800000000019,-0.015079999999999802,0.009639,0.0191986217719376,0.0114668131856028,-1.010825168837716
28.07017543859649,0.6089811975074554,0.5733480687264108,-9.886089,-0.062474999999999795,-0.030932000000000195,-0.025008000000000002,0.0187273828738991,0.0124267442741996,-1.0342295628680618
29.07268170426065,0.6089808711308853,0.5733482834019087,-9.837065,-0.051525999999999905,-0.004920999999999905,0.0209330000000001,0.013212142437597,0.0065100781099389,-1.0845478589886643
30.07518796992481,0.6089805318388786,0.5733484912706226,-9.805105,-0.072846,-0.013721000000000094,0.0543039999999999,0.0042062434973063,-0.0027750735106708,-1.1594396753923528
31.07769423558897,0.6089801754426454,0.5733486797661819,-9.823531,-0.06974000000000011,-0.041518,-0.004749000000000003,0.0016057029118347,-0.006457718232379,-1.2519419163085428
32.08020050125313,0.6089797977533953,0.5733488417327365,-9.84269,-0.020449999999999996,0.006880999999999901,-0.077013,-0.0046425758103049,-0.0016057029118348,-1.3477959922400171
33.08270676691729,0.6089794026108526,0.5733489747268254,-9.823068,-0.006517999999999885,0.06410700000000019,0.021832999999999998,-0.016615534478986,-0.0069115038378975,-1.4412580420717556
34.08521303258145,0.6089789969963344,0.5733490729888623,-9.820381,-0.04634700000000003,0.015229000000000104,0.048253000000000004,-0.0073478361508961,-0.0127409035395584,-1.5323466710135842
35.08771929824561,0.608978587367559,0.5733491365188471,-9.843727,-0.0008830000000000782,0.003088999999999696,-0.013989000000000001,-0.0139277274309147,-0.0125140107367993,-1.6110089920135258
36.09022556390977,0.6089781735499934,0.5733491670621089,-9.879316,0.04924499999999998,-0.0006900000000001003,-0.02304,-0.0032637657012293,-0.0092851516206098,-1.6717109499859433
37.092731829573935,0.6089777522275119,0.5733491700291689,-9.89634,0.05393100000000001,0.017615000000000602,-0.018009999999999998,-0.0135437549954759,-0.0069813170079773,-1.7174390301738012
38.095238095238095,0.6089773261926416,0.5733491557174689,-9.909376,0.011311000000000002,0.001770999999999301,0.038694999999999896,-0.0056897733615015,-0.0088488193076112,-1.750722144850067
39.097744360902254,0.608976895619915,0.5733491269195362,-9.925971,0.0017609999999999987,-0.011764999999999502,-0.0298609999999998,-0.0164933614313464,-0.0055676003138618,-1.7700604278687488
40.100250626566414,0.6089764633018594,0.573349085729766,-9.927502,0.057115,0.010218000000000001,0.0078699999999999,-0.006754424205218,-0.0063704517697793,-1.7722772403648774
41.10275689223057,0.6089760248751512,0.5733490394785408,-9.932653,0.048534999999999905,-0.006863000000000501,0.013672,-0.0069638637154573,-0.0074874624910556,-1.7618227355987233
42.10526315789473,0.60897558208512,0.5733489939254472,-9.946418,0.0073700000000000996,-0.0019409999999994987,0.0048489999999999,-0.0068242373752978,-0.0086568330898917,-1.745992372390333
43.10776942355889,0.6089751349317656,0.5733489537828744,-9.970861,0.0194,-0.0036900000000002,-0.0112369999999999,-0.005218534463463,-0.006457718232379,-1.7243680396640957
44.11027568922306,0.6089746816697589,0.573348922192415,-9.979953,0.03422799999999991,0.009349000000000298,-0.0309569999999999,0.0028274333882308,-0.0021991148575128,-1.6970013991658723
45.11278195488722,0.6089742284077522,0.5733489000267336,-9.973615,0.01936400000000009,0.07696599999999951,0.0299319999999999,0.1205673447277683,0.0122871179340402,-1.7141223286363585
46.11528822055138,0.6089738100523304,0.5733488694834715,-9.939631,-0.3498059999999999,0.23533999999999988,-0.044726,-0.015062191444711,0.0232826922216045,-1.9688885806020384
47.11779448621554,0.608973461335546,0.573348786929398,-9.90766,-0.1360860000000001,0.12012900000000037,0.062426999999999996,-0.0088313660150913,0.0134041286553165,-2.279818759952026
48.1203007518797,0.6089732051212118,0.5733486987902707,-9.858485,0.1021080000000002,-0.012112999999999985,-0.0519519999999999,-0.0806691180271779,0.0086742863824118,-2.5409025627578568
49.122807017543856,0.6089730332062804,0.5733485406634404,-9.804797,0.08839599999999981,-0.01035100000000011,0.0536729999999998,-0.0084299402871326,-0.004886921905584,-2.7605699293066666
50.125313283208015,0.6089729255194655,0.5733483343655229,-9.774389,0.06782599999999991,-0.04483300000000007,0.021033999999999997,-0.0227940000310459,-0.0056723200689814,-2.9486290514893003
51.127819548872175,0.6089728764757135,0.5733481038075288,-9.789438,0.036930000000000185,-0.048086999999999935,0.009450000000000104,0.0166678943565458,-0.0059341194567805,-3.116111003590309
52.130325814536334,0.6089728712397258,0.5733478568434396,-9.833748,0.033009,-0.036522,-0.0609699999999999,0.0266511776779534,0.004031710572107,3.015003818222889
53.1328320802005,0.6089729120804303,0.5733475997564407,-9.843351,0.0481499999999999,0.01979999999999993,-0.040236000000000105,0.0137881010907552,0.0080983277292536,2.8740861089497924
54.13533834586466,0.6089730007431563,0.5733473402259809,-9.813397,0.0340879999999998,0.015541000000000083,0.03501800000000001,0.0049392817831439,0.0023212879051526,2.75018494100462
55.13784461152882,0.6089731428129573,0.5733470822663175,-9.788024,-0.0076379999999997,-0.034758999999999984,0.037540000000000004,0.0084473935796525,-0.0040142572795869,2.6560595089774908
56.14035087719298,0.6089733335774447,0.5733468248302528,-9.784616,0.003352,-0.052385000000000015,0.0038849999999999996,0.0094422312532893,-0.0072256631032565,2.5910461514203345
57.14285714285714,0.6089735623901096,0.5733465675687212,-9.812916,-0.0031450000000001,-0.06880099999999989,0.004970999999999899,0.0187971960439789,-0.0095993108859686,2.557116671508884
58.1453634085213,0.6089738093541986,0.5733463073401296,-9.855744,-0.02938,-0.0664760000000002,-0.0383279999999998,0.0245044226980003,-0.0079237948040542,2.555685501522249
59.14786967418546,0.6089740650449342,0.573346042748215,-9.876442,-0.025110999999999897,-0.0476649999999999,-0.0173570000000001,0.0134913951179161,-0.0067544242052179,2.5860543177734128
60.15037593984962,0.6089743182922086,0.5733457685569896,-9.87931,-0.024700000000000104,-0.052447999999999995,0.016777,0.0170518667919846,-0.0069115038378975,2.6415210384814256
61.15288220551378,0.6089745617656392,0.5733454824975251,-9.883915,-0.0030219999999998998,-0.060597,0.023013,0.014137166941154,-0.0079237948040542,2.7163779657533667
62.15538847117794,0.6089747832479214,0.5733451843952889,-9.908647,0.0014870000000000022,-0.064767,0.0037490000000000006,0.0126361837844389,-0.0077143552938148,2.805162969522073
63.1578947368421,0.6089749680782891,0.5733448728540175,-9.939709,-0.0020660000000003037,-0.04275999999999991,-0.031105,0.0176452787376626,-0.0066322511575784,2.900911871912822
64.16040100250626,0.6089751143368805,0.5733445504917046,-9.937659,0.0211550000000002,0.02151199999999992,-0.026032,0.015987215948268,-0.0063180918922194,2.990796223670776
65.16290726817043,0.608975227434216,0.5733442199263442,-9.920748,0.021071000000000104,0.009835000000000094,0.054939,0.0211010306566114,-0.0115715329407224,3.074257816141267
66.16541353383458,0.6089753054504335,0.5733438811579364,-9.930834,0.000580999999999901,-0.029595000000000093,0.005647999999999997,0.0143989663289532,-0.011641346110802,-3.130684345764829
67.16791979949875,0.6089753494327307,0.5733435388988701,-9.963879,0.022618000000000096,0.00010699999999999599,0.007159000000000002,0.0216420827247296,-0.0098436569812478,-3.0664387759989173
68.1704260651629,0.6089753553668502,0.5733431922764807,-10.016467,0.0003839999999999018,0.013798000000000005,-0.0341119999999999,0.0171565865471042,-0.0038222710618676,-3.0190880457521887
69.17293233082707,0.6089753281397138,0.5733428440832948,-10.030932,0.0152720000000004,0.06282499999999999,-0.0421310000000001,0.0197047672550159,8.726646259971105e-05,-2.991284898408042
70.17543859649122,0.6089752846810155,0.5733424948429116,-10.017528,-0.0188700000000006,0.0721180000000001,0.034934,0.0102276294166867,-0.001535889741755,-2.9768162236287643
71.17794486215539,0.608975234415533,0.5733421410646722,-9.995211,-0.006832999999999399,0.0228189999999999,0.0113150000000001,0.0096865773485685,-0.003665191429188,-2.972697106967717
72.18045112781954,0.6089751855463139,0.5733417823995108,-9.99229,-0.007753000000000603,0.009176000000000002,0.0284889999999999,0.0119205987911212,-0.006702064327658,-2.9763275314382054
73.1829573934837,0.6089751389460228,0.5733414164039669,-10.002394,0.004198000000000104,0.006688000000000099,-0.031236,-0.0008901179185171,-0.0046251225177849,-2.98653755048274
74.18546365914787,0.6089750907749356,0.5733410462196324,-10.012054,0.009122000000000099,0.0242499999999999,0.0137629999999999,0.0064926248174189,-0.0061959188445797,-3.003746636533744
75.18796992481202,0.6089750480143689,0.5733406723701067,-10.031317,0.0159200000000004,0.006863999999999901,0.0020130000000000998,-0.0284314135149876,-0.0028448866807506,-3.032299978750276
76.19047619047619,0.6089750188673703,0.5733403138794783,-10.053671,0.2033649999999993,0.17146000000000008,-0.036045,-0.0429350995990605,0.0161093889959076,3.0524236250257704
77.19298245614034,0.6089750597080749,0.5733399958804886,-10.048008,0.09154400000000029,0.27797700000000003,0.004545,0.037856191475757,0.0225671072282866,2.7490331284180582
78.19548872180451,0.60897513161564,0.5733397417605495,-9.9875,0.023381000000000096,-0.06197999999999998,-0.049247,-0.0676140552222603,0.029216811678385,2.4808807595949425
79.19799498746866,0.6089752998653799,0.5733395443638111,-9.893466,0.017938999999999927,-0.05820900000000001,0.0617410000000001,0.0108908545324446,0.0151320046147909,2.243777658538465
80.20050125313283,0.6089755553815825,0.573339390425771,-9.805185,-0.0025580000000001157,-0.08599299999999999,0.0223389999999999,-0.0774053523259485,0.0090058989402908,2.0313714027300205
81.203007518797,0.6089758602906028,0.57333928535695,-9.778541,-0.010073999999999916,-0.10147400000000012,0.08454199999999999,-0.0041189770347066,-0.0036477381366681,1.8369416018848048
82.20551378446115,0.6089761875398375,0.5733392207797678,-9.825328,-0.015824000000000005,-0.0917559999999999,-0.061674999999999994,0.0035255650890285,0.0059341194567807,1.6528094356125724
83.20802005012531,0.6089765231666527,0.5733392033264753,-9.894334,-0.0012510000000000021,-0.056637000000000104,-0.0396799999999999,0.0146258591317124,0.0108734012399247,1.4793759980287262
84.21052631578947,0.6089768566990726,0.5733392282846836,-9.934702,-0.0066669999999999785,-0.0213619999999998,-0.0442530000000001,0.0114842664781226,0.0150098315671511,1.3235705604229475
85.21303258145363,0.608977189533361,0.5733392987959854,-9.909891,-0.01815699999999998,0.0156819999999999,-0.014450999999999999,0.0075921822461753,0.0128107167096385,1.1862479850628638
86.21553884711778,0.6089775283017689,0.5733394132895843,-9.836669,-0.014624000000000137,0.0237719999999999,0.027606,0.0145036860840728,0.0064228116473392,1.0656806228818028
87.21804511278195,0.6089778784148169,0.5733395698456182,-9.764071,-0.01583799999999988,0.003708999999999997,0.05917,0.0166678943565458,-0.0004712388980383,0.9722182414375063
88.22055137844612,0.608978239697972,0.5733397611337042,-9.740367,-0.053852000000000094,-0.023385999999999896,0.036312999999999894,0.0134041286553164,-0.0060737457969402,0.9154252101243184
89.22305764411027,0.6089786032500552,0.5733399806961241,-9.78514,-0.06346499999999991,-0.0319689999999999,-0.0019199999999999912,0.0235095850243636,-0.0073129295658562,0.8965581660036747
90.22556390977444,0.6089789601698873,0.5733402173627707,-9.867265,-0.0653090000000001,-0.0029430000000001,-0.050117999999999906,0.0282568805897882,-0.0029670597283903,0.919631401261747
91.2280701754386,0.6089793116791985,0.5733404589163391,-9.933517,-0.0736909999999998,0.043387,-0.046870999999999996,0.0240157305074419,0.0035779249665883,0.9826901296830098
92.23057644110276,0.6089796659810367,0.573340694884854,-9.949226,-0.073977,0.065066,-0.019791000000000003,0.0278554548618295,0.0057072266540214,1.0762572308824256
93.23308270676692,0.6089800382597662,0.573340911654747,-9.915212,-0.076363,0.044752999999999904,0.018161000000000004,0.0180816110506612,0.00310668606855,1.1888309850893526
94.23558897243107,0.6089804384637637,0.5733410964851149,-9.860158,-0.056386000000000214,0.0014780000000002846,0.0379809999999999,0.034156093461529,-0.0032637657012293,1.3085780250686836
95.23809523809524,0.6089808657203646,0.5733412406493111,-9.821733,-0.024366999999999778,-0.031201000000000284,0.0310100000000001,0.0341910000465689,-0.0116238928182821,1.426824099344592
96.2406015037594,0.6089813111283896,0.5733413441473357,-9.825701,0.005174999999999985,-0.05247100000000011,0.012658000000000003,0.0262672052425146,-0.0157428698529888,1.5357501852280206
97.24310776942356,0.6089817635177318,0.5733414080263863,-9.874657,0.005946999999999897,-0.0470019999999996,-0.006411,0.0210312174865316,-0.0153763507100699,1.632039842980915
98.24561403508773,0.6089822139872118,0.5733414357771215,-9.943129,0.018846,-0.024081000000000102,-0.034638,0.0190240888467382,-0.011030480872604,1.7116618332700662
99.24812030075188,0.6089826600933685,0.5733414312392654,-9.999738,0.035651000000000016,0.004279999999999602,-0.024312,0.0191462618943778,-0.0053407075111024,1.771735961403956
100.25062656641605,0.6089831055013937,0.5733413986016085,-10.02934,0.04395299999999999,0.0264830000000006,-0.0080839999999999,0.01844813019358,0.0004712388980385,1.812437179186804
101.2531328320802,0.6089835563199394,0.5733413471143954,-10.022569,0.04643,0.024589999999999397,-0.007797000000000099,0.0238586508747624,0.0047472955654246,1.8335382098434152
102.25563909774436,0.6089840167377961,0.5733412842825424,-9.993622,0.037199,0.005150000000000501,0.03419,0.0148527519344717,0.0024783675378319,1.8374826190463367
103.25814536340852,0.6089844885002929,0.5733412163892345,-9.977384,0.025137000000000097,-0.009467000000000399,0.022227999999999998,0.0152541776624304,-0.0008552113334772,1.8268186573166525
104.26065162907268,0.6089849658478433,0.5733411476232619,-9.982837,0.0489149999999998,-0.0047859999999997,-0.0006150000000000981,-0.0082379540694132,-0.0047123889803846,1.805054366637698
105.26315789473684,0.6089854316762207,0.5733410840932771,-10.008802,-0.0701689999999998,-0.23112300000000008,-0.004072000000000001,-0.0578751179961319,0.0099134701513279,1.9500911925718416
106.265664160401,0.6089858353708767,0.5733409865293719,-9.992696,-0.2805120000000001,-0.1989180000000002,-0.09197299999999989,0.1268679833274678,0.0188146493364989,2.254267331689046
107.26817042606515,0.6089861636673091,0.5733408917579936,-9.945395,0.061244999999999994,-0.03197199999999961,0.09944399999999999,0.1104618883587211,-0.007958701389094,2.532106138234391
108.27067669172932,0.6089863973668959,0.5733407639998924,-9.927596,0.11996600000000007,0.042372999999999716,0.004007999999999998,0.152053084433746,-0.0140848070635941,2.762873571933081
109.27318295739347,0.6089865495596065,0.5733405892924341,-9.936645,0.05125500000000001,0.024969000000000185,-0.005226999999999999,0.1217367153266045,-0.0157952297305485,2.96941583561409
110.27568922305764,0.6089866406657937,0.5733403952118215,-9.950048,0.029351999999999795,0.03339199999999992,-0.023858999999999998,0.0287106661953067,-0.009529497715889,-3.1311032596918924
