Time [s],Longitude [rad],Latitude [rad],Altitude [m],V North [m/s],V East [m/s],V Down [m/s],Roll [rad],Pitch [rad],Yaw [rad]
1.0025062656641603,0.6096587505546416,0.5734271111975751,-11.246019,0.12539100000000003,0.15979599999999994,0.006406000000000002,0.0157254165604689,-0.0134390352403561,-0.4067664354697984
2.0050125313283207,0.6096586070885771,0.5734274295456305,-11.279463,0.05344899999999986,0.13256600000000007,0.025317999999999997,-0.007993607974134,-0.0075921822461753,-0.3495196534576774
3.007518796992481,0.609658488231655,0.5734277557476678,-11.327631,0.025253999999999888,0.07758100000000001,-0.0019920000000000007,-0.0085172067497323,0.0001221730476397,-0.3055897510915646
4.010025062656641,0.6096583824647024,0.5734280775863819,-11.355957,0.0051480000000001525,0.05473899999999998,-0.036404,-0.0167028009415857,0.0093375114981697,-0.2707007415172458
5.012531328320802,0.6096582869951922,0.5734283994250959,-11.336946,0.008178000000000019,0.06942499999999996,-0.048851,-0.0001919862177193,0.0164410015537865,-0.242373751051405
6.015037593984962,0.6096582028703224,0.5734287209147442,-11.278131,0.01727400000000001,0.082289,-0.025949999999999994,0.0082728606544531,0.0218864288200089,-0.2212729996474734
7.017543859649122,0.6096581344534157,0.5734290458950508,-11.208636,0.008846999999999827,0.066768,0.0044309999999999905,-3.490658503988601e-05,0.0257610597594364,-0.2089505562493736
8.020050125313283,0.6096580805227417,0.5734293724461539,-11.163726,-0.0007880000000000109,0.028707000000000038,0.03961200000000001,0.0008203047484373,0.0255516202491969,-0.2038197071275303
9.022556390977442,0.609658026243002,0.5734296995208558,-11.156609,0.003066000000000013,-0.029442000000000024,0.020884,-0.0044331363000655,0.0235619449019235,-0.2031741621970957
10.025062656641603,0.6096579639347477,0.5734300267700906,-11.13455,0.006454000000000182,-0.02389600000000003,-0.051063,-0.0103498024643263,0.0256912465893566,-0.2003293627828076
11.027568922305765,0.6096578995320984,0.5734303550665228,-11.04705,0.0023529999999998275,0.046104000000000034,-0.055484,-0.0026354471705114,0.0281172542496286,-0.1936970243587661
12.030075187969924,0.6096578431579636,0.5734306828393564,-10.944301,0.0011980000000000324,0.057062999999999975,0.026987999999999998,0.0032288591161895,0.0258832328070759,-0.1916895466531223
13.032581453634084,0.6096577958595407,0.5734310088668606,-10.893356,-0.0002039999999996489,-0.0033889999999999754,0.058769,-0.0075398223686155,0.0217118958948094,-0.1972747224325515
14.035087719298245,0.6096577480375193,0.5734313369887599,-10.884426,-0.0017590000000002881,-0.04549500000000001,0.014858999999999999,-0.0089709923552508,0.0185528499486997,-0.2036103897903391
15.037593984962406,0.6096576918379174,0.573431665983324,-10.858847,-0.004982999999999738,-0.02413599999999999,-0.039233,-0.0054977871437821,0.017819811662862,-0.2061409252195132
16.040100250626566,0.609657629704196,0.573431992534427,-10.790814,-0.0024810000000003996,0.030159999999999965,-0.033750999999999996,0.0032288591161895,0.0168249739892254,-0.204482827523533
17.042606516290725,0.6096575740281929,0.5734323203072605,-10.714806,0.005809000000000175,0.040536000000000016,0.022368999999999993,-0.0008203047484373,0.0136135681655558,-0.2073974052013156
18.045112781954884,0.6096575256825725,0.5734326479055611,-10.683571,0.010307000000000066,-0.013402999999999998,0.056656,-0.0078190750489345,0.0101927228316469,-0.2164207225275414
19.047619047619047,0.6096574741953596,0.5734329781218557,-10.697202,-0.002571000000000101,-0.061124999999999985,0.021426,-0.0130027029273577,0.0091106186954104,-0.2252517569300754
20.050125313283207,0.6096574090945786,0.5734333060692222,-10.700891,-0.01716099999999976,-0.038773,-0.036502,-0.0101229096615671,0.0099832833214075,-0.2264565751660196
21.052631578947366,0.6096573377106121,0.5734336312240618,-10.655172,-0.01060300000000014,0.03129700000000002,-0.04622899999999999,0.0020943951023931,0.0096167641784887,-0.222599257892772
22.05513784461153,0.6096572738315614,0.5734339544590392,-10.589313,0.004413,0.054199,0.011908999999999996,0.0071383966406568,0.0060388392119004,-0.222232808563023
23.05764411027569,0.6096572207735522,0.5734342789157472,-10.568998,0.012046999999999919,-0.0025440000000000462,0.067037,-0.00614355896702,0.0019722220547535,-0.22869043952894
24.06015037593985,0.6096571649230161,0.573434608084844,-10.608521,0.006673999999999847,-0.07270599999999999,0.03369,-0.0116587994033221,0.0013788101090754,-0.2371901755328587
25.062656641604008,0.6096570958079778,0.5734349344614141,-10.6355,-0.043828999999999674,-0.032279,-0.051712,-0.0183434104384603,0.0056199601914217,-0.1950403344708562
26.065162907268167,0.6096570347214539,0.5734352610125172,-10.597057,0.06589199999999984,0.173187,-0.057904,0.0378736447682769,0.0099832833214075,-0.1080013057259672
27.06766917293233,0.609656985677702,0.5734355873890874,-10.535094,-0.0019100000000000783,0.14391400000000001,0.017314999999999997,-0.0007330382858376,0.0071209433481369,-0.0632506099192265
28.07017543859649,0.6096569722386668,0.5734359203979086,-10.517377,0.003614000000000228,0.044987,0.05371,-0.0032463124087094,0.0053930673886626,-0.0501606405292689
29.07268170426065,0.6096569743330618,0.5734362535812628,-10.539702,0.003991000000000078,-0.020710000000000006,0.015443,0.0,0.0053581608036226,-0.0556238527005697
30.07518796992481,0.6096569699697387,0.5734365874627487,-10.553276,-0.007210000000000161,-0.016553,-0.03033,-0.002740166925631,0.0050963614158234,-0.070615847002766
31.07769423558897,0.6096569605449607,0.5734369192498395,-10.526041,-0.015900999999999943,0.0037670000000000065,-0.036647,-0.0037350045992678,0.0020245819323134,-0.0943179767502091
32.08020050125313,0.6096569498984524,0.5734372477208048,-10.487463,-0.003931000000000129,-0.007430000000000006,0.02021,0.0016929693744344,-0.0042062434973062,-0.1252271643910829
33.08270676691729,0.6096569350631537,0.5734375772389676,-10.487562,0.010968000000000089,-0.058572,0.048432,-0.0085870199198121,-0.009494591130849,-0.1560324700348776
34.08521303258145,0.6096569099304124,0.5734379069316633,-10.522575,0.0044119999999998605,-0.074939,0.008912,-0.0221656815003279,-0.0123394778115999,-0.1724908201614295
35.08771929824561,0.6096568710095701,0.5734382369734249,-10.543262,-0.011260999999999743,-0.008902999999999994,-0.029789,-0.0063355451847394,-0.0143291531588733,-0.1640086421697841
36.09022556390977,0.6096568305179315,0.5734385659679888,-10.542326,-0.008267000000000024,0.05501,-0.0012299999999999998,0.0001396263401595,-0.0190066355542182,-0.1315628142955776
37.092731829573935,0.6096567998001367,0.5734388937408224,-10.566505,0.007374999999999687,0.061422000000000004,0.042294,-0.0024958208303518,-0.0235270383168835,-0.0769520379593278
38.095238095238095,0.6096567816487124,0.5734392232589851,-10.625526,0.016599000000000252,0.07468999999999999,0.017436999999999994,-0.0077143552938149,-0.0249582083035189,0.0020943951023931
39.097744360902254,0.6096567788561856,0.5734395546970101,-10.679236,0.007406000000000024,0.12743500000000002,-0.023216999999999995,0.0019896753472735,-0.0246615023306797,0.1064999909566939
40.100250626566414,0.609656803639861,0.5734398875312985,-10.701916,-0.011159000000000141,0.20604399999999998,-0.030490999999999997,0.0108559479474047,-0.0245567825755601,0.2318320845424067
41.10275689223057,0.6096568708350372,0.5734402167003954,-10.710947,-0.04514299999999993,0.2531260000000001,0.007431999999999999,0.0244869694054804,-0.0268082573106327,0.3661002638983305
42.10526315789473,0.6096569882956959,0.5734405357465826,-10.744713,-0.08219500000000002,0.2415259999999999,0.039400000000000004,0.0165631746014261,-0.0283441470523877,0.5045397976198133
43.10776942355889,0.6096571514839809,0.5734408387357408,-10.821802,-0.10890899999999992,0.20184200000000008,0.03773699999999999,0.01230457122656,-0.0272096830385915,0.6472378998095772
44.11027568922306,0.6096573527204437,0.5734411233989418,-10.914551,-0.13467200000000012,0.19879400000000003,-0.009390999999999997,0.020001473227855,-0.026720990848033,0.7946658966321233
45.11278195488722,0.6096575895616232,0.5734413838020661,-10.983402,-0.17473300000000003,0.21384999999999987,-0.029747999999999997,0.031991885189056,-0.0285012266850672,0.943437657352365
46.11528822055138,0.609657867592573,0.5734416134873958,-11.02318,-0.21519,0.21753900000000015,-0.020152999999999997,0.0259879525621955,-0.0261973920724347,1.0909877748626728
47.11779448621554,0.6096581845443652,0.5734418098369366,-11.05545,-0.24176799999999998,0.18064199999999997,0.004580999999999995,0.0176103721526227,-0.0185703032412196,1.2374733462490195
48.1203007518797,0.6096585357046107,0.5734419636004437,-11.097445,-0.258439,0.12380799999999992,0.011047000000000001,0.025848326222036,-0.0116064395257622,1.380258732354675
49.122807017543856,0.609658906063478,0.5734420754760488,-11.148803,-0.265038,0.07610099999999997,0.0010660000000000044,0.028920105705546,-0.0068416906678177,1.517860542941786
50.125313283208015,0.6096592877669854,0.5734421445910871,-11.197625,-0.271798,0.04260300000000017,-0.007964000000000006,0.0200712863979347,-0.0030368728984699,1.649737621222478
51.127819548872175,0.6096596752300792,0.5734421705964929,-11.229436,-0.267313,0.02468199999999987,-0.024730999999999996,0.0274365758413508,0.0018675022996339,1.7727659325554357
52.130325814536334,0.6096600635658379,0.5734421555866613,-11.233442,-0.249672,0.011633999999999922,-0.028813000000000002,0.0109955742875642,0.009529497715889,1.8857060662789409
53.1328320802005,0.6096604532978598,0.5734421013069217,-11.217857,-0.22124199999999997,-0.02882600000000002,-0.009588,0.0172438530097039,0.0163886416762268,1.9897451255370304
54.13533834586466,0.6096608351759002,0.5734420147385907,-11.20177,-0.19936700000000007,-0.0680559999999999,0.0058390000000000004,0.0038571776469074,0.020647245051093,2.086907622448847
55.13784461152882,0.6096612009969113,0.5734418974524651,-11.187449,-0.20931,-0.09192899999999993,-0.004453000000000002,0.0040317105721069,0.0237015712420831,2.192168534356381
56.14035087719298,0.6096615458739716,0.5734417468305506,-11.158469,-0.19594900000000004,-0.09166200000000013,-0.023602,0.011362093430483,0.0276983752291499,2.282628652781274
57.14285714285714,0.609661873646805,0.5734415735193559,-11.10784,-0.16469899999999993,-0.09863899999999992,-0.017654999999999997,0.0056897733615015,0.0295135176512242,2.360156213061446
58.1453634085213,0.609662184140879,0.5734413700139651,-11.040249,-0.13063599999999997,-0.08366600000000002,-0.016861,-0.0068591439603377,0.0318173522638567,2.4254838171504245
59.14786967418546,0.6096624808468518,0.57344114835715,-10.959044,-0.08975299999999997,-0.0755570000000001,-0.009251999999999996,-0.0132645023151569,0.035691983203284,2.4817185874490697
60.15037593984962,0.6096627613212626,0.5734409144830303,-10.878011,-0.07685900000000001,-0.09124599999999994,0.008489999999999998,-0.0019024088846738,0.0375245789178781,2.542822686734439
61.15288220551378,0.609663024167848,0.5734406697878692,-10.810541,-0.08957400000000004,-0.12401400000000007,0.015497999999999998,0.0020769418098732,0.0371406064824393,2.608935671533521
62.15538847117794,0.6096632611835605,0.5734404139226008,-10.756923,-0.09519300000000008,-0.13667399999999996,0.012924999999999999,0.0009773843811168,0.0332485222504921,2.672605195379812
63.1578947368421,0.6096634732410645,0.5734401432220338,-10.710245,-0.08066499999999999,-0.124784,0.0014120000000000035,-0.0019547687622336,0.0278903614468695,2.728961946739879
64.16040100250626,0.6096636606894262,0.573439858035234,-10.656484,-0.06321399999999988,-0.10468799999999989,-0.015423000000000006,-0.0028623399732707,0.0223227611330074,2.7775169541704834
65.16290726817043,0.6096638338260881,0.5734395635981893,-10.581731,-0.05059999999999998,-0.07535400000000003,-0.020059999999999995,-0.0049567350756638,0.0163362817986669,2.8203648222135294
66.16541353383458,0.6096639956181097,0.573439263052492,-10.492913,-0.04001200000000016,-0.047533999999999965,-0.004348000000000005,-0.0145211393765928,0.0108210413623648,2.8579241855434
67.16791979949875,0.6096641500797485,0.5734389586670705,-10.426696,-0.026366999999999807,-0.049012000000000056,0.046767,-0.0177849050778222,0.0057595865315813,2.889933524024976
68.1704260651629,0.609664293545813,0.5734386500928588,-10.41624,-0.019183000000000172,-0.09293600000000002,0.054814,-0.0053930673886624,0.0015009831567152,2.917230648059092
69.17293233082707,0.6096644178132558,0.5734383387261203,-10.451449,-0.012753000000000014,-0.107205,0.031492,-0.0048345620280242,-0.0050614548307834,2.9355390820993423
70.17543859649122,0.6096645197404841,0.5734380259631183,-10.49278,-0.018865999999999827,-0.06256499999999998,-0.019361,-0.0086568330898918,-0.011309733552923,2.942241198786878
71.17794486215539,0.6096646139882637,0.5734377098839908,-10.495621,-0.006639999999999979,0.01699700000000004,-0.03932,-0.0147131255943121,-0.0155334303427494,2.9401293154853803
72.18045112781954,0.6096647143446956,0.573437392059534,-10.478373,-0.010658999999999974,0.039733999999999936,0.00015199999999999936,-0.0195476876223364,-0.0186575697038193,2.935643749494585
73.1829573934837,0.6096648258712349,0.5734370738860113,-10.478003,0.005729999999999791,0.023349999999999982,0.032466,-0.0194953277447766,-0.019634954084936,2.9286273862752275
74.18546365914787,0.60966494193563,0.5734367579814167,-10.523742,0.0030770000000002184,-0.015390999999999933,0.047868999999999995,-0.0194604211597367,-0.0206996049286527,2.9203372294078878
75.18796992481202,0.6096650529385705,0.5734364426004208,-10.600751,0.012286999999999715,-0.03691699999999998,0.006186999999999998,4.337963350313732e-19,-0.023073252711365,2.909690982770109
76.19047619047619,0.6096651566111281,0.5734361294883531,-10.657458,0.01750200000000013,0.007647999999999988,-0.038742,-0.0016580627893946,-0.0260403124397552,2.893406816502907
77.19298245614034,0.6096652660432722,0.5734358209141414,-10.673329,0.02747900000000003,0.07572299999999998,-0.025606999999999998,-0.0115889862332423,-0.0278729081543493,2.8747841184775424
78.19548872180451,0.6096653908343138,0.5734355165287197,-10.691357,0.01850099999999988,0.06617799999999996,0.025390000000000003,-0.007382742735936,-0.0271224165759917,2.862793776329512
79.19799498746866,0.6096655260973308,0.5734352158084897,-10.750838,-0.00010199999999982445,0.0022530000000000605,0.045329999999999995,-0.0027750735106709,-0.0261275789023549,2.85710393315484
80.20050125313283,0.6096656604876832,0.5734349133429302,-10.834377,-0.008672000000000013,-0.03538300000000005,-0.005485000000000004,0.0031241393610698,-0.0228812664936455,2.8523741606951054
81.203007518797,0.6096657885948502,0.5734346100047063,-10.888979,0.006072999999999995,-0.005298999999999943,-0.04207199999999999,-0.0040142572795869,-0.0188844625065784,2.8440315392304503
82.20551378446115,0.6096659158293528,0.5734343068410152,-10.901268,0.014721999999999902,0.04402099999999998,-0.032448000000000005,-0.0045029494701453,-0.0152018177848705,2.834763736182605
83.20802005012531,0.6096660523141003,0.5734340059462522,-10.900474,0.011012000000000022,0.04749999999999999,0.004994,-0.0046774823953448,-0.0122347580564801,2.8304701913161137
84.21052631578947,0.609666199794422,0.573433705226022,-10.91721,0.0018730000000000135,0.011781000000000041,0.024324,-0.0040491638646268,-0.0097912971036882,2.832232938954043
85.21303258145363,0.6096663458784805,0.5734334064256541,-10.954091,-0.005338999999999983,-0.02750600000000003,0.007899,0.0035779249665883,-0.0056723200689814,2.836910508615851
86.21553884711778,0.6096664875992157,0.5734331067526216,-10.982704,-0.0032650000000000734,-0.02941499999999997,-0.023218999999999997,0.0053756140961425,-0.0022514747350725,2.840907382416088
87.21804511278195,0.6096666211169035,0.5734328058578584,-10.983833,0.0014039999999999608,-0.0034960000000000546,-0.023716,-0.0037175513067479,-0.0004537856055184,2.8433857150473347
88.22055137844612,0.6096667535873938,0.5734325053121613,-10.969445,-0.002542999999999962,0.010207999999999995,-0.004705000000000001,-0.0020071286397934,-8.726646259971105e-05,2.8463527573224323
89.22305764411027,0.6096668885013449,0.5734322042428653,-10.952606,-0.011652999999999913,0.0036319999999999686,-0.006029,0.0009424777960769,0.0009424777960769,2.8513794626478086
90.22556390977444,0.6096670260332899,0.5734319019518389,-10.928819,-0.0021089999999999165,-0.0028009999999999424,-0.004803999999999999,-5.235987755982984e-05,0.0030194196059503,2.857034154891345
91.2280701754386,0.6096671637397679,0.5734315973918844,-10.909878,0.00793099999999991,-0.003098000000000045,0.012670999999999998,0.0019198621771937,0.0042236967898263,2.8617466136849
92.23057644110276,0.6096672977810546,0.5734312952753908,-10.910684,0.007557999999999954,-0.02119099999999996,0.023244,0.0057595865315812,0.0030194196059503,2.865917933143874
93.23308270676692,0.609667427109952,0.5734309943806278,-10.928569,-0.0065830000000000055,-0.03886900000000004,0.007323,0.011676252695842,0.0003665191429189,2.8698274532150485
94.23558897243107,0.6096675473631376,0.5734306915660026,-10.935886,-0.013649000000000022,-0.02320599999999995,-0.021963,0.0026354471705114,-0.0016755160819144,2.870874598406368
95.23809523809524,0.6096676663945926,0.5734303852607189,-10.914931,-0.014893999999999963,0.015225999999999962,-0.034272,-0.0029845130209103,-0.002740166925631,2.8683611148439856
96.2406015037594,0.6096677918837657,0.5734300777337047,-10.863598,0.0017849999999999255,0.05077300000000007,-0.017375,-0.0077318085863348,-0.0020245819323132,2.8631253365275127
97.24310776942356,0.6096679281939803,0.5734297719520198,-10.81824,0.013288000000000189,0.040788999999999964,0.028083,-0.0039269908169872,-0.0013439035240354,2.8612403460287736
98.24561403508773,0.6096680695656498,0.573429470359125,-10.818813,0.015075999999999867,-0.017908999999999953,0.052934999999999996,0.0013089969389957,-0.0007504915783576,2.8638409389741226
99.24812030075188,0.6096682077957264,0.5734291703370266,-10.863105,0.004671000000000092,-0.05649800000000005,0.026069999999999996,0.0074525559060157,-0.001815142422074,2.8671570994594973
100.25062656641605,0.6096683313650375,0.5734288704894611,-10.90947,-0.005730000000000013,-0.04020699999999999,-0.020394999999999996,0.0055850536063818,-0.0041538836197463,2.8675933270527407
101.2531328320802,0.6096684481275645,0.5734285687220334,-10.917042,-0.014758000000000049,0.011751999999999985,-0.048785,0.0038222710618675,-0.004886921905584,2.864207388303872
102.25563909774436,0.609668568206217,0.5734282636384802,-10.876399,-0.012440000000000007,0.05365500000000001,-0.035574999999999996,-0.0050789081233034,-0.002740166925631,2.859285594719833
103.25814536340852,0.6096687029456352,0.5734279555878672,-10.823138,0.0008509999999999351,0.04981899999999995,0.011770999999999997,-0.0127234502470386,1.74532925198978e-05,2.856580351832534
104.26065162907268,0.6096688471098315,0.573427650155248,-10.803467,0.017518000000000145,0.007141000000000064,0.044391,-0.003996803987067,0.0020769418098733,2.85698169029403
105.26315789473684,0.6096689910994948,0.5734273494350179,-10.832372,0.022853000000000012,-0.03166599999999997,0.044381,0.0005585053606381,0.000314159265359,2.85944272671239
106.265664160401,0.6096691246171826,0.5734270511582488,-10.88426,0.0009629999999998251,-0.04547699999999999,-0.0032279999999999948,0.0079587013890941,-0.0031241393610697,2.863509361322829
107.26817042606515,0.6096692488846253,0.5734267534050784,-10.902527,-0.01333899999999999,-0.014917000000000069,-0.052553,0.0075572756611354,-0.0036128315516281,2.864713655959997
108.27067669172932,0.6096693719303375,0.5734264516376507,-10.870017,-0.01604799999999984,0.023739000000000066,-0.037938,0.0018151424220741,-0.0024434609527919,2.8646784875755698
109.27318295739347,0.6096695024809656,0.573426145332367,-10.821469,-0.009546000000000054,0.032962999999999965,0.005179000000000003,-0.0071558499331767,-0.0001745329251994,2.865813265748632
110.27568922305764,0.6096696419327728,0.5734258392016163,-10.796635,0.002483000000000013,0.012975999999999988,0.032117,-0.0066671577426183,0.0007679448708775,2.8676282161844884
