Time [s],DVL X [m/s],DVL Y [m/s],DVL Z [m/s]
0.0,0.023187232603381486,2.0612616333909326,0.0028694486824747583
1.0025062656641603,-0.03339020157472286,2.067186843376739,0.011081240134082647
2.0050125313283207,-0.08887656095518087,2.064724644551254,0.007629595367914674
3.007518796992481,-0.13925951351793298,2.069304554978429,-0.0014718183563663964
4.010025062656641,-0.17976885495325026,2.066173460018806,0.00021658880825643282
5.012531328320802,-0.21664893969981427,2.0603911058402917,0.006872016819194033
6.015037593984962,-0.2593536027581684,2.0527494796194246,-0.003256543495500699
7.017543859649122,-0.29814673749024573,2.0459687041261714,-0.0071714686219627715
8.020050125313283,-0.34988828991589793,2.0444131989753873,-0.01485029006298876
9.022556390977442,-0.4018421828419124,2.0369902674232008,-0.024259672998709826
10.025062656641603,-0.4388815734792151,2.045177281748738,-0.023236347997283982
11.027568922305765,-0.466467209735003,2.0262874290203956,-0.0032252812210095167
12.030075187969924,-0.496404835327267,2.0095990065966136,0.016415755407890958
13.032581453634084,-0.5371747538808802,1.9905843948507864,0.02268536174595011
14.035087719298245,-0.596611013728355,1.9720898874751944,0.003571436839341036
15.037593984962406,-0.6468941978803002,1.9771193526406676,-0.022010103033559197
16.040100250626566,-0.7023026535163044,1.9713393570352062,-0.032072532811980324
17.042606516290725,-0.7483769552138558,1.9699641540564385,-0.03367913915972619
18.045112781954884,-0.7697760234675066,1.9500342516916713,-0.007329105869965717
19.047619047619047,-0.7815426233107937,1.924894588166482,0.029664019449066343
20.050125313283207,-0.804771350080315,1.8930623019889776,0.05088016769921077
21.052631578947366,-0.8448130267353364,1.8723907519867016,0.0411486726754987
22.05513784461153,-0.891510872084476,1.8519679759815024,0.00013348840678082882
23.05764411027569,-0.9529080202070342,1.8478971726312907,-0.04805192428396197
24.06015037593985,-1.0023676319192272,1.8504288813100664,-0.07105668232627614
25.062656641604008,-1.034240706808936,1.832311986058306,-0.056461387030595174
26.065162907268167,-1.0526874123335843,1.8121065583372489,-0.0031516296660414676
27.06766917293233,-1.0909978124796194,1.7481447818703322,0.055265509987812975
28.07017543859649,-1.127532309694345,1.7024611175548034,0.07341555458064855
29.07268170426065,-1.1735156591369598,1.66157302252327,0.03753406413154689
30.075187969924812,-1.219283378503097,1.6492392700534086,-0.022770025576866047
31.07769423558897,-1.2651967112220097,1.6601994590323026,-0.05716704466616388
32.08020050125313,-1.2868494603343077,1.6520509484789243,-0.05408851957843802
33.08270676691729,-1.308841664419355,1.623974568349746,-0.011978324391449689
34.08521303258145,-1.338861212181607,1.5738980230367046,0.02795821494211885
35.08771929824561,-1.3579421292250966,1.5308205574102067,0.048788032783809825
36.09022556390977,-1.39026875658574,1.4979620752073843,0.04117176511794134
37.092731829573935,-1.414693215462509,1.4696392608794735,0.014912748069433941
38.095238095238095,-1.441554398955208,1.4559543672775788,-0.010241844718257096
39.097744360902254,-1.473108296074311,1.4394534046728245,-0.01746667080044252
40.100250626566414,-1.503129877296775,1.3963515096214592,-0.005989759315039407
41.10275689223057,-1.5249415435841196,1.3575224042772613,-0.010502313105611182
42.10526315789473,-1.5475675684518257,1.314483680762383,-0.0059243838059574025
43.10776942355889,-1.5705165791340265,1.281878832730561,-0.009965765424082573
44.11027568922306,-1.5949437595221172,1.2551037157053024,-0.0019237417171281365
45.11278195488722,-1.6259061653466138,1.2218450246479393,0.010145154357850437
46.11528822055138,-1.6268109237180703,1.195348207335574,0.015990867680802892
47.11779448621554,-1.6500742449067891,1.1594248441437525,0.013357862835191046
48.1203007518797,-1.6712104804696113,1.0995434850949863,0.011188840453710776
49.122807017543856,-1.7047564412850158,1.0582060259860682,0.002300012395842626
50.125313283208015,-1.7265021339522475,1.0296440632665202,-0.016617507254205216
51.127819548872175,-1.7473720398053663,1.0079010110363642,-0.028848103357168156
52.130325814536334,-1.7570057229907812,0.9735624906147372,-0.02146038433191157
53.1328320802005,-1.7605270326704536,0.9337692789613036,0.002129279374403018
54.13533834586466,-1.7692543346373717,0.8963504555887661,0.025771162016546886
55.13784461152882,-1.796025432730434,0.8536480075782725,0.02164073559515878
56.14035087719298,-1.8053565770463933,0.8121946563673167,0.011542237291972094
57.14285714285714,-1.8189601699712836,0.7543669359213695,0.005327374648208596
58.1453634085213,-1.8355029813794137,0.7055289763293109,-0.007667315827578564
59.14786967418546,-1.8467777153726386,0.6645966152600139,-0.02224574963790171
60.150375939849624,-1.861068987177676,0.6393990832993572,-0.03438006241124789
61.152882205513784,-1.850630732237844,0.6135311063742762,-0.03021395803231241
62.15538847117794,-1.8507214039724333,0.6119978626077203,-0.013985696010021757
63.1578947368421,-1.8568962736529309,0.5709948684132041,0.020843082321130784
64.16040100250626,-1.8579168846884526,0.5078854058462982,0.03809495713205198
65.16290726817043,-1.871736741442285,0.43882417888037195,0.025813361229845674
66.16541353383458,-1.8634055544662869,0.3985962297371446,-0.012389025971555445
67.16791979949875,-1.8805252029383883,0.37702247470103284,-0.038426941172041644
68.1704260651629,-1.8736371426339478,0.36429454979470494,-0.05332503351494213
69.17293233082707,-1.8845515902111243,0.35340659838814625,-0.029503097827849666
70.17543859649122,-1.8792341857137485,0.31553139186053253,0.01729522663445979
71.17794486215539,-1.879441741022635,0.24318477330305235,0.04583530191181693
72.18045112781954,-1.8704692007011934,0.17419104739499697,0.025483429511617858
73.1829573934837,-1.8695975161448948,0.14121110929447855,-0.01605311928137912
74.18546365914787,-1.8644595977303073,0.12907745497264866,-0.03443117824188204
75.18796992481202,-1.8668873024654629,0.09880015128128768,-0.022081853138296637
76.19047619047619,-1.8646044655091838,0.06994608115144557,-0.009980120278113132
77.19298245614034,-1.8506827643668218,0.026306337123097396,-0.00149400560367639
78.19548872180451,-1.8443171439936126,-0.004423294823669634,0.009611032262204059
79.19799498746866,-1.8427530148604836,-0.0549418440187481,0.009503791265483669
80.20050125313283,-1.8336489764937438,-0.09402223132609587,0.002738729615402619
81.203007518797,-1.8223514092739193,-0.12351062990894299,-0.0014628639225514497
82.20551378446115,-1.814420161209761,-0.17160564615665114,0.003748065861637234
83.20802005012531,-1.8028167813689135,-0.19303641740712973,-0.0009417378885425571
84.21052631578947,-1.7967252062062433,-0.20936215911450234,-0.006682347345548739
85.21303258145363,-1.7791825944182673,-0.24279623704392383,-0.006764426538472222
86.21553884711778,-1.7719431133787216,-0.26316461491895293,0.0056426704035517595
87.21804511278195,-1.7574196295819373,-0.3023632059511304,0.013773751995709543
88.22055137844612,-1.7441825702147011,-0.3421481115496854,0.0038159773612070577
89.22305764411027,-1.734563934009778,-0.3674883375911204,-0.008549615783002833
90.22556390977444,-1.7247584249642494,-0.39506418926395953,-0.013996059947339053
91.2280701754386,-1.7139738244426728,-0.409219557860288,-0.013549113439189266
92.23057644110276,-1.690075975569025,-0.4454998032824491,0.006305783829746624
93.23308270676692,-1.7411392967846706,-0.28602899623866096,-0.014695402610579507
94.23558897243107,-1.7610903368428468,0.1015752037716927,0.08326078941785599
95.23809523809524,-1.6797871630172014,0.06043655541131705,0.027163317518954608
96.2406015037594,-1.5315507652882592,-0.36562685788949856,-0.06725385961267817
97.24310776942356,-1.2999382927100747,-0.7746478908880344,-0.04787280999414967
98.24561403508773,-1.0097881909431152,-1.098887717105045,0.011169290062154426
99.24812030075188,-0.7301571430995525,-1.3416214105439723,0.05269794583949215
100.25062656641605,-0.4908390946383245,-1.499485353573562,0.037524912778052394
101.2531328320802,-0.2483324131386313,-1.5876471899743636,-0.00633395352456375
102.25563909774436,0.04330664047267763,-1.6102712296006312,-0.03887708022012133
103.25814536340852,0.35316973483894315,-1.5965637827817294,-0.006612873315480267
104.26065162907268,0.6378677049115071,-1.5665638939446485,0.05625289178260134
105.26315789473684,0.891121213968453,-1.5031157340074768,0.0596193412958833
106.265664160401,1.1178284513687733,-1.3911172504393463,0.0027226587299182584
107.26817042606515,1.3768998331789863,-1.1468443429872597,-0.04992655249261687
108.27067669172932,1.685414397073634,-0.7121943600993131,-0.03442352371050196
109.27318295739347,1.9127742914546073,-0.2739761780546313,0.03458801818406334
110.27568922305764,2.041880143302441,-0.013442490583176253,0.026688186096554985
111.2781954887218,1.928474346784114,0.48873228218723647,0.011517833591488223
112.28070175438596,1.853241567152923,0.8537812947762321,-0.11557384991337732
113.28320802005013,1.8706917308975908,0.8085269077737841,-0.034506607398233316
114.28571428571428,1.9315873223445557,0.4722990607828941,0.011667700732636035
115.28822055137844,1.9246203875795664,0.0746458573402293,-0.07269918974115082
116.2907268170426,1.8380899958513695,-0.31146889542728023,-0.038440282743781744
117.29323308270676,1.666538316775169,-0.6493970193496857,-0.05652805149597267
118.29573934837092,1.449842492508642,-0.9086657232082869,-0.08536626813728897
119.29824561403508,1.2305359314819693,-1.1371969184267683,-0.010430368807543217
120.30075187969923,0.9896964936042458,-1.298938356213324,-0.0015239656453864881
121.3032581453634,0.7040629101527465,-1.4092131499702714,-0.02772031385303839
122.30576441102755,0.3941551615442073,-1.4512760203621726,-0.0538514497464387
123.30827067669172,0.06303244976676392,-1.4497532288045798,0.009401192269943136
124.31077694235589,-0.4893235588660127,-1.3019451421022785,0.01426714200453406
125.31328320802004,-0.967970823654904,-1.0290136897875655,-0.02632216434161628
126.3157894736842,-1.23410561793689,-0.9004070717946475,-0.00650463771435043
127.31829573934836,-1.382744311416966,-0.9006799173630994,0.0378335641437459
128.32080200501252,-1.466263455257859,-0.9822658484600684,0.053950997685913195
129.32330827067668,-1.5227692042264336,-1.0852397508134788,0.051586038177909854
130.32581453634086,-1.5888435397943281,-1.1460079940563022,0.05135693813771565
131.328320802005,-1.6490984964018438,-1.1840349781408568,0.048428896788596534
132.33082706766916,-1.7009194766107112,-1.2104297037905543,0.050538246960635844
133.33333333333331,-1.760529746999219,-1.2332690585914594,0.07009576419298078
134.3358395989975,-1.8067023024775137,-1.2683644883164669,0.08845197915906006
135.33834586466165,-1.7940780548414423,-1.2838594770929528,0.06469676661902626
136.3408521303258,-1.4008174735583894,-1.6645285264959662,0.019890708500713797
137.34335839598998,-1.104096392863176,-1.739212395411739,-0.1000955399839712
138.34586466165413,-1.3770736328385231,-1.319909796445304,-0.0041188484589835634
139.34837092731829,-1.6630811086853745,-0.7661714787129378,-0.016481849612701802
140.35087719298244,-1.8012937681791212,-0.2765907400529865,-0.0124335408071098
141.35338345864662,-1.8217409162752911,0.12429797041949715,0.029644048442388146
142.35588972431077,-1.7819603435546116,0.4857949955745616,0.02340435932564526
143.35839598997492,-1.6930762681422489,0.811027707888936,-0.017748462438575988
144.36090225563908,-1.6196842282391217,1.098400254411429,-0.06841796308973737
145.36340852130326,-1.5500527074835029,1.3435464763015252,-0.08515398280656257
146.3659147869674,-1.477929534726291,1.5221060679828549,-0.055950819775105666
147.36842105263156,-1.385555527075541,1.5938039101184465,-0.011519063137584242
148.37092731829574,-1.3245086642131432,1.6264743417914505,0.03563415418360131
149.3734335839599,-1.2820373445919124,1.6493524395407189,0.06012025092092659
150.37593984962405,-1.2615309107237511,1.6579787877095231,0.048443761484440975
151.3784461152882,-1.264703685544064,1.6735837054235831,0.009065009758932662
152.38095238095238,-1.2664352955442577,1.6914048097935441,-0.03274490583267645
153.38345864661653,-1.2576013538900461,1.7052566662405744,-0.04618974798593867
154.38596491228068,-1.2496464013092095,1.7112027713152733,-0.039749668575585505
155.3884711779449,-1.2481725721541737,1.713506380859905,-0.0041963098579818805
156.39097744360902,-1.2579112096702187,1.6898337170088107,0.026281302026230875
157.39348370927317,-1.2791107113108833,1.6674906507863365,0.038499615789305476
158.39598997493732,-1.2905651834601586,1.654738922235976,0.020412589638882282
159.3984962406015,-1.285329308236438,1.654924822620482,-0.00045552826889283646
160.40100250626566,-1.2755594419417167,1.6715976183419157,-0.02039439459678511
161.4035087719298,-1.2780085706042152,1.6808817951130737,-0.015219711745701253
162.406015037594,-1.2863225623445511,1.6840213278277556,-0.018469765878001882
163.40852130325814,-1.279117121190536,1.683791997761839,-0.01779046023662765
164.4110275689223,-1.2857218264368977,1.6826991837371057,-0.015251403353418885
165.41353383458645,-1.2958751225856942,1.682354715400508,-0.008861753674332867
166.41604010025063,-1.296437133457768,1.6819958608860412,0.001650992134637766
167.41854636591478,-1.282738755291527,1.6876458497362294,0.010798668030214587
168.42105263157893,-1.273782391178139,1.6936951372678104,0.011098830608370205
169.4235588972431,-1.2691223044166235,1.69391671482826,0.005681774606180552
170.42606516290726,-1.286755993905696,1.6845873777349802,-0.006812655851106393
171.42857142857142,-1.2873678401462907,1.6931191214311858,-0.018442856697470585
172.43107769423557,-1.2956547525728923,1.7023937160289973,-0.020435505236226652
173.43358395989975,-1.2980565390552474,1.7043114280566887,-0.022252501101709475
174.4360902255639,-1.3011458565611798,1.7068929261790158,-0.007574114846511275
175.43859649122803,-1.2918425867665082,1.7112645893781402,0.005748486225247483
176.44110275689223,-1.3077361702333872,1.7066424494433536,0.01286421945953185
177.4436090225564,-1.2986906617034313,1.7004396229800325,0.01149188125710037
178.44611528822054,-1.306086552229973,1.6984221827944759,0.010691101237403381
179.4486215538847,-1.3135338501937694,1.681294922285379,0.008462063963971006
180.45112781954887,-1.319885993749315,1.688956262992807,-0.00617078031982911
181.45363408521305,-1.3363476662719755,1.687901967013291,-0.029734426362473823
182.4561403508772,-1.325353954349979,1.720558713778214,-0.05121732163759919
183.45864661654133,-1.3145187998711554,1.7302372015348766,-0.029139209599018955
184.4611528822055,-1.305061803229246,1.731144858186438,0.016973581551587114
185.4636591478697,-1.2953128366072428,1.691751518485302,0.05813807644882981
186.46616541353384,-1.2969145257252834,1.6765310713005577,0.057506642421242475
187.468671679198,-1.321428840413792,1.6714349520625051,0.021772081583296098
188.47117794486215,-1.3222556614281293,1.688146493943895,-0.039702447571843894
189.4736842105263,-1.3298539195478194,1.7249177071292872,-0.06977795555292714
190.47619047619045,-1.3181793272824571,1.7348570561535352,-0.053138765863166286
191.47869674185463,-1.2968860718943802,1.724353397583899,0.009340915813126202
192.4812030075188,-1.2929370374576736,1.7021828826019978,0.06443648239100817
193.48370927318297,-1.3000589793441857,1.6768569258838844,0.06518752668881793
194.48621553884712,-1.3109988571978524,1.6621306213490328,0.015833118732673405
195.48872180451127,-1.3162666963074707,1.691526468815974,-0.04665395640004614
196.49122807017545,-1.306558611814387,1.7247296975247817,-0.06866019811896171
197.4937343358396,-1.2076485106409038,1.7996318787178631,-0.03766095684149751
198.49624060150376,-1.1123407698687235,1.8694557191398031,0.014896161395921696
199.4987468671679,-1.1387684824483224,1.8422936724150238,0.041823946464974636
200.5012531328321,-1.2359380230507935,1.7423961673100705,0.030808891987091275
201.50375939849624,-1.3926575782813142,1.5849160566992515,0.012089709240475342
202.5062656641604,-1.5459244556525826,1.3795699107722634,0.0014288415142260208
203.50877192982455,-1.6961860456268414,1.1620165437113468,-0.00499446943270396
204.5112781954887,-1.8251832772802905,0.8913902073912959,0.008851664774570292
205.51378446115288,-1.9294898908755402,0.5992206771238187,0.0300833293098814
206.51629072681703,-1.9865344001696572,0.27697697593454135,0.05494611190737235
207.5187969924812,-2.0074126938412205,-0.07567509160754046,0.05938457553373486
208.52130325814537,-1.9990313630038734,-0.3839808212373451,0.014103410572254399
209.52380952380952,-1.9420238707867925,-0.6402224650953261,-0.028335726028218575
210.52631578947367,-1.8760317267691193,-0.8404565278926823,-0.04025084177070587
211.52882205513785,-1.820882758467495,-1.0475437595216766,-0.009494400928884157
212.531328320802,-1.7315670728265613,-1.2769738946869715,0.014823172563309775
213.53383458646616,-1.6192933979161817,-1.4619530874121507,0.0031449828535151294
214.5363408521303,-1.4964417784371222,-1.5602773857105245,-0.05418027539867599
215.5388471177945,-1.405148192788022,-1.610452486270314,-0.0979137663013652
216.54135338345864,-1.355079716306329,-1.652615666325429,-0.05759462629375888
217.5438596491228,-1.341543388453439,-1.6976812285791067,0.01292541790434746
218.54636591478695,-1.3048221162684888,-1.7374843866714562,0.015162881735841136
219.54887218045113,-1.2812794842004593,-1.7332602921340547,-0.03253006336260502
220.55137844611528,-1.2977144574403683,-1.7038431654933321,-0.03324660541939844
221.55388471177943,-1.3183402839828395,-1.6754381449270834,0.014226661777819487
222.5563909774436,-1.3375560822322612,-1.6676559355642413,0.04061752024481111
223.55889724310777,-1.3175901374582322,-1.6702460523673759,0.01596408287358294
224.56140350877192,-1.3302660876543808,-1.618108720522631,-0.04449735316082951
225.56390977443607,-1.3615662985491042,-1.5594477283867694,-0.03635672198693603
226.56641604010025,-1.3835345758196138,-1.5548232057818148,0.03726236651104953
227.5689223057644,-1.3575971977974601,-1.5917396504949473,0.07049901409740555
228.57142857142856,-1.3188811700285745,-1.6010942771491155,0.005817501302923008
229.5739348370927,-1.2865411129202644,-1.5665183195233485,-0.05110451299668828
230.5764411027569,-1.2802732768255607,-1.5516138737335012,-0.018835070667727546
231.57894736842104,-1.2819852573303476,-1.5724019458078886,0.04137623875136498
232.5814536340852,-1.2441290189993377,-1.5979944092069582,0.040242817011860325
233.58395989974937,-1.1877362466556542,-1.5964032833487956,-0.01201363839658305
234.58646616541353,-1.1634524437993579,-1.5859328860528723,-0.04541267738536597
235.58897243107768,-1.1552102136894893,-1.585197574415965,-0.006306099208529636
236.59147869674183,-1.1225455530193602,-1.621736996930339,0.029365460660846898
237.593984962406,-1.0736679197292383,-1.641472840311108,0.012081869485783991
238.59649122807016,-1.0396903899515026,-1.6452254772696393,-0.04052098207573264
239.59899749373432,-1.0130048291444416,-1.61081082628393,-0.06668714504701914
240.6015037593985,-1.0180636253027966,-1.5879686497012913,-0.021169422150475896
241.60401002506265,-0.9971373418615906,-1.6213430550125945,0.06128486957340459
242.6065162907268,-0.9443110600202848,-1.6582329350274048,0.06619050764847939
243.60902255639095,-0.8869541919367008,-1.6651660854771606,-0.014747767410109502
244.6115288220551,-0.883449570588268,-1.6245548374437504,-0.07226557637987295
245.6140350877193,-0.9062642481021006,-1.5991455488959807,-0.04973751548987381
246.61654135338344,-0.8988021903951848,-1.6178944882208586,0.024413232034715827
247.6190476190476,-0.8575522937375513,-1.647698113843783,0.06389143892653804
248.62155388471177,-0.8135881039544074,-1.644513078797155,0.014731231346056516
249.62406015037593,-0.7904952196884658,-1.6128672927744279,-0.04237802408289587
250.62656641604008,-0.7964010188068048,-1.6025975528544165,-0.030652938595131095
251.62907268170423,-0.7867718953789282,-1.6045552325962587,0.006239030679144554
252.6315789473684,-0.7779242361450983,-1.6122196678441547,0.007641458993385358
